time,f1,b1,f2,b2,f3,b3,f1p,f2p,f3p,f0,intensity,harmonicity
0.025875,304.5,63.3,1881.5,337.6,2516.6,105.1,388.4,1966.8,2961,246.5,68.7,-200
0.027875,292.0,41.4,1845.2,334.5,2524.3,120.0,388.4,1966.7,2960.9,245.3,71.1,-186.9
0.029875,282.8,28.4,1808.4,413.4,2539.3,162.2,388.5,1966.6,2960.7,244,73.6,-147.4
0.031875,277.5,27.0,1812.5,638.5,2562.0,231.9,388.5,1966.4,2960.5,242.7,75.9,-98.1
0.033875,274.3,30.9,1883.6,839.8,2580.0,283.9,388.5,1966.3,2960.1,241.3,77.8,-48.7
0.035875,272.3,35.4,1931.4,918.6,2589.7,308.8,388.5,1966,2959.8,239.9,79.4,-8.9
0.037875,271.2,39.5,1931.9,982.3,2594.6,299.8,388.5,1965.7,2959.3,238.4,80.6,12.9
0.039875,269.9,44.1,1891.5,1057.2,2598.7,247.8,388.6,1965.4,2958.8,237,81.5,20.3
0.041875,268.0,49.3,1833.3,1100.3,2604.0,195.9,388.6,1965.1,2958.2,235.5,82.1,18.9
0.043875,265.6,55.8,1787.1,1134.4,2608.1,170.7,388.6,1964.7,2957.5,234,82.3,13.6
0.045875,263.7,64.1,1760.7,1185.8,2610.2,173.4,388.7,1964.2,2956.8,232.5,82.4,9.5
0.047875,262.8,73.1,1747.6,1243.9,2611.4,205.0,388.7,1963.8,2956,231,82.4,10.4
0.049875,261.4,80.1,1759.9,1392.7,2617.0,288.3,388.7,1963.2,2955.1,229.5,82.2,13.1
0.051875,259.1,82.4,1852.5,1770.5,2618.5,406.4,388.8,1962.7,2954.2,228,82.1,16.1
0.053875,257.2,82.3,895.3,2977.0,2552.0,2375.5,388.8,1962.1,2953.1,226.6,81.9,19
0.055875,257.8,84.6,819.4,2418.4,2489.2,387.6,388.9,1961.4,2952.1,225.2,81.8,21.1
0.057875,261.7,92.4,459.4,2825.1,2458.5,303.8,389,1960.8,2950.9,223.8,81.6,21.9
0.059875,270.3,108.0,2453.5,258.2,2821.6,2953.3,389,1960,2949.7,222.4,81.4,21.4
0.061875,284.1,130.0,2268.6,2194.1,2465.1,237.5,389.1,1959.3,2948.4,221.1,81.2,20.1
0.063875,301.0,153.7,2232.5,2118.6,2476.2,223.5,389.2,1958.5,2947.1,219.8,81,18.6
0.065875,315.4,176.1,2474.0,209.9,2506.8,2827.1,389.2,1957.7,2945.7,218.5,80.7,17.4
0.067875,326.1,191.4,2467.2,189.7,3324.0,1946.1,389.3,1956.8,2944.2,217.3,80.5,17.1
0.069875,337.0,196.6,2471.9,163.2,3280.9,1409.1,389.4,1955.9,2942.7,216.1,80.4,17.4
0.071875,349.0,194.2,2490.4,137.4,3239.3,1221.3,389.5,1954.9,2941.1,215,80.3,18
0.073875,364.8,187.7,2515.3,114.8,3209.8,1133.0,389.6,1953.9,2939.4,213.9,80.2,18.7
0.075875,382.9,175.4,2540.9,100.1,3183.7,1090.5,389.7,1952.9,2937.7,212.8,80.1,19.3
0.077875,396.4,160.8,2562.6,99.4,3137.0,1096.5,389.8,1951.8,2935.9,211.8,80,19.7
0.079875,404.1,147.6,2585.6,111.1,3065.2,1179.8,389.9,1950.7,2934.1,210.8,80,20.2
0.081875,405.1,143.1,2606.5,116.9,3098.8,1303.0,390,1949.6,2932.2,209.8,79.9,20.6
0.083875,397.5,151.4,2615.5,108.1,3356.0,1097.3,390.1,1948.4,2930.2,208.9,79.8,20.9
0.085875,388.9,154.0,2615.6,101.9,3522.8,688.8,390.2,1947.2,2928.2,208,79.7,20.8
0.087875,393.8,148.7,2612.8,109.9,3572.9,514.9,390.4,1946,2926.1,207.1,79.6,20.2
0.089875,409.7,141.4,2615.3,134.0,3601.3,503.8,390.5,1944.7,2923.9,206.3,79.5,18.7
0.091875,427.3,132.1,2623.2,182.2,3702.7,596.4,390.6,1943.4,2921.7,205.5,79.4,16.9
0.093875,442.2,123.8,2625.1,267.8,3143.9,1100.3,390.8,1942.1,2919.5,204.7,79.3,15
0.095875,454.3,119.8,2599.6,372.8,3057.0,669.6,390.9,1940.7,2917.2,204,79.1,13.8
0.097875,464.0,120.2,2568.1,432.0,3072.8,487.0,391.1,1939.3,2914.8,203.3,78.9,13.5
0.099875,473.1,123.2,2555.5,480.2,3108.3,428.1,391.2,1937.9,2912.4,202.6,78.8,14.1
0.101875,479.0,130.0,2565.5,529.4,3157.6,446.5,391.4,1936.4,2909.9,202,78.7,15.2
0.103875,479.9,143.5,2588.0,585.4,3226.7,496.2,391.6,1935,2907.4,201.4,78.6,16.5
0.105875,472.1,165.6,2608.2,658.1,3304.1,514.8,391.7,1933.4,2904.9,200.8,78.6,17.6
0.107875,454.1,187.0,2618.4,715.8,3357.5,487.6,391.9,1931.9,2902.2,200.2,78.7,18.1
0.109875,429.1,195.0,2619.0,722.2,3391.7,458.9,392.1,1930.3,2899.6,199.7,78.7,18.3
0.111875,409.0,188.2,2618.0,691.4,3421.5,458.3,392.3,1928.7,2896.9,199.3,78.9,18.4
0.113875,395.9,176.1,2628.0,640.7,3465.8,462.3,392.5,1927.1,2894.1,198.8,78.9,18.4
0.115875,386.9,161.2,594.6,3344.8,2642.9,548.1,392.7,1925.4,2891.3,198.4,79,18.5
0.117875,381.3,145.8,1134.7,2086.6,2643.6,451.2,392.9,1923.8,2888.4,198,79,18.8
0.119875,378.6,133.3,1250.5,1584.7,2641.5,396.1,393.1,1922,2885.6,197.7,78.9,19.2
0.121875,378.2,126.2,1329.3,1355.4,2652.0,393.7,393.4,1920.3,2882.6,197.4,78.7,19.8
0.123875,377.9,120.6,1404.6,1166.6,2679.6,420.1,393.6,1918.6,2879.7,197.1,78.4,20.2
0.125875,377.7,113.6,1463.2,960.8,2722.7,451.7,393.8,1916.8,2876.6,196.8,78.2,20.4
0.127875,378.8,106.3,1491.1,794.1,2763.4,471.6,394.1,1915,2873.6,196.6,77.9,20.1
0.129875,382.1,99.9,1497.8,687.2,2786.4,486.3,394.3,1913.2,2870.5,196.4,77.6,19.3
0.131875,386.7,96.3,1491.4,655.1,2780.0,497.9,394.6,1911.4,2867.4,196.2,77.5,18.1
0.133875,390.7,95.5,1476.6,679.8,2752.7,505.0,394.9,1909.5,2864.2,196.1,77.4,17
0.135875,392.7,97.2,1454.5,741.7,2718.6,511.3,395.1,1907.6,2861,195.9,77.4,16.2
0.137875,391.7,99.8,1427.2,804.1,2688.1,517.0,395.4,1905.7,2857.8,195.8,77.5,16.1
0.139875,388.4,102.2,1390.5,852.2,2656.9,515.6,395.7,1903.8,2854.5,195.8,77.6,16.5
0.141875,385.2,106.1,1350.0,909.1,2628.1,507.3,396,1901.9,2851.3,195.7,77.6,17.3
0.143875,384.5,115.3,1303.1,1027.8,2602.2,495.5,396.3,1900,2847.9,195.7,77.6,18.2
0.145875,387.9,131.9,1238.3,1245.7,2580.4,482.3,396.6,1898,2844.6,195.7,77.6,18.9
0.147875,394.2,150.3,1161.4,1524.5,2566.3,486.0,396.9,1896,2841.2,195.7,77.5,19.4
0.149875,399.1,163.1,1097.7,1770.7,2556.0,523.6,397.3,1894,2837.8,195.7,77.5,19.8
0.151875,398.2,166.0,1098.4,1847.4,2542.9,601.4,397.6,1892.1,2834.4,195.7,77.4,20.1
0.153875,394.2,164.6,1141.1,1890.1,2508.2,743.4,397.9,1890,2831,195.8,77.3,20.4
0.155875,392.0,166.9,1179.6,2334.2,2380.2,999.7,398.3,1888,2827.5,195.9,77.3,20.6
0.157875,395.2,176.3,2095.5,966.9,3249.6,536.9,398.6,1886,2824,196,77.3,20.7
0.159875,405.1,188.5,1969.5,692.2,3179.9,508.9,399,1884,2820.5,196.1,77.4,20.6
0.161875,418.6,193.1,1918.9,539.2,3107.6,488.5,399.4,1881.9,2817,196.2,77.4,20.4
0.163875,429.2,188.2,1892.5,455.4,3034.6,422.4,399.8,1879.9,2813.5,196.4,77.5,20.3
0.165875,432.3,182.3,1886.0,410.5,2993.8,328.6,400.2,1877.8,2809.9,196.5,77.5,20.4
0.167875,428.1,180.1,1892.0,393.9,2982.9,266.3,400.6,1875.8,2806.3,196.7,77.5,20.8
0.169875,418.9,178.2,1899.6,392.2,2983.2,224.5,401,1873.7,2802.8,196.9,77.5,21.6
0.171875,407.8,173.3,1906.8,406.8,2989.1,195.7,401.4,1871.6,2799.2,197.1,77.4,22.7
0.173875,397.9,164.6,1914.5,439.5,2995.5,176.2,401.9,1869.5,2795.6,197.3,77.4,23.7
0.175875,392.8,156.9,1914.3,477.2,2996.5,170.2,402.3,1867.5,2792,197.5,77.2,24.5
0.177875,393.9,155.4,1899.3,489.7,2988.1,180.2,402.7,1865.4,2788.4,197.7,77.1,24.7
0.179875,397.7,157.0,1885.0,489.2,2971.7,199.5,403.2,1863.3,2784.7,197.9,77,24.4
0.181875,398.6,156.8,1888.2,520.4,2960.2,219.6,403.7,1861.2,2781.1,198.2,76.9,23.9
0.183875,396.1,154.8,1909.8,587.1,2961.9,241.4,404.2,1859.2,2777.5,198.4,76.8,23.3
0.185875,392.8,154.0,1948.8,657.1,2975.2,256.8,404.6,1857.1,2773.9,198.7,76.8,22.8
0.187875,390.9,156.7,1989.7,692.2,2981.3,258.0,405.1,1855,2770.2,198.9,76.8,22.5
0.189875,391.8,162.8,2014.7,701.6,2960.6,255.3,405.6,1853,2766.6,199.2,76.9,22.3
0.191875,396.4,169.1,2019.0,701.5,2916.9,251.2,406.2,1850.9,2763,199.5,77,22.2
0.193875,402.6,172.4,2029.6,698.3,2873.3,240.2,406.7,1848.8,2759.4,199.7,77.2,22.1
0.195875,409.2,173.8,2057.7,693.2,2843.9,228.5,407.2,1846.8,2755.8,200,77.3,22
0.197875,415.5,176.0,2085.7,677.0,2831.1,218.8,407.8,1844.8,2752.1,200.2,77.5,22
0.199875,421.4,179.2,2099.4,642.1,2830.9,208.2,408.3,1842.7,2748.5,200.5,77.6,21.9
0.201875,425.0,181.7,2097.9,586.9,2842.4,197.8,408.9,1840.7,2745,200.8,77.8,21.8
0.203875,426.6,183.6,2093.7,510.9,2864.6,187.0,409.5,1838.7,2741.4,201,77.9,21.8
0.205875,427.7,185.7,2096.4,429.6,2893.7,172.8,410.1,1836.7,2737.8,201.3,78.1,22
0.207875,429.2,187.8,2107.7,371.7,2919.7,156.2,410.7,1834.7,2734.3,201.6,78.2,22.6
0.209875,431.5,189.3,2125.9,338.7,2939.5,140.3,411.3,1832.7,2730.7,201.8,78.2,23.7
0.211875,434.4,189.3,2144.5,332.7,2950.3,132.8,411.9,1830.8,2727.2,202.1,78.2,25.1
0.213875,437.1,188.0,2158.2,348.0,2955.3,135.2,412.5,1828.8,2723.7,202.3,78.2,26.5
0.215875,438.1,187.0,2158.7,372.3,2956.7,142.8,413.1,1826.9,2720.2,202.6,78.2,27.4
0.217875,436.3,187.3,2138.5,384.4,2956.0,144.7,413.8,1825,2716.7,202.8,78.2,27.6
0.219875,431.5,188.2,2095.3,375.5,2953.2,136.9,414.4,1823.1,2713.3,203.1,78.2,27.2
0.221875,425.7,187.6,2039.4,344.9,2948.2,123.7,415.1,1821.2,2709.8,203.3,78.2,26.5
0.223875,421.3,184.3,1982.8,296.5,2941.9,109.8,415.8,1819.3,2706.4,203.6,78.2,25.5
0.225875,417.4,178.6,1939.5,250.0,2936.7,99.0,416.5,1817.5,2703.1,203.8,78.2,24.5
0.227875,408.5,169.9,1920.9,240.3,2932.8,96.9,417.2,1815.7,2699.7,204.1,78.3,23.7
0.229875,393.2,152.1,1926.7,296.2,2923.5,111.5,417.9,1813.9,2696.4,204.3,78.3,23
0.231875,382.4,133.5,1952.6,437.9,2905.7,147.9,418.6,1812.1,2693.1,204.6,78.3,22.2
0.233875,378.5,124.1,1971.2,641.0,2339.5,2498.6,419.3,1810.3,2689.8,204.8,78.3,21.3
0.235875,379.9,119.1,1907.8,661.0,2460.5,1543.3,420,1808.6,2686.6,205.1,78.3,20.3
0.237875,385.8,116.1,1864.0,448.5,2570.9,1282.5,420.8,1806.9,2683.4,205.3,78.3,19
0.239875,396.8,117.4,1845.7,282.0,2634.0,1093.8,421.5,1805.2,2680.2,205.6,78.3,17.2
0.241875,410.8,122.0,1834.7,192.7,2647.1,911.3,422.3,1803.6,2677.1,205.9,78.2,15.2
0.243875,425.9,127.9,1827.5,144.0,2635.7,797.6,423.1,1801.9,2674,206.1,78.2,13.3
0.245875,439.7,135.1,1824.2,118.4,2630.9,775.1,423.9,1800.3,2670.9,206.4,78.2,11.8
0.247875,449.8,143.2,1825.1,108.7,2632.4,828.1,424.7,1798.8,2667.9,206.7,78.3,11.2
0.249875,458.6,154.2,1829.5,108.3,2643.8,934.1,425.5,1797.2,2664.9,207,78.3,11.1
0.251875,466.3,166.0,1834.3,115.1,2664.2,1030.2,426.3,1795.7,2661.9,207.3,78.4,11.5
0.253875,472.7,175.9,1835.2,131.0,2669.5,1045.8,427.1,1794.2,2659,207.6,78.4,12.2
0.255875,478.0,184.6,1827.8,158.0,2651.0,961.1,427.9,1792.8,2656.1,207.9,78.4,12.9
0.257875,483.4,196.1,1812.8,186.9,2640.1,839.3,428.8,1791.3,2653.3,208.2,78.4,13.5
0.259875,491.2,213.5,1795.0,209.9,2642.4,711.7,429.6,1790,2650.5,208.5,78.3,14.5
0.261875,501.7,232.1,1781.1,222.1,2634.6,602.2,430.5,1788.6,2647.8,208.9,78.3,15.5
0.263875,515.2,245.7,1768.3,227.5,2606.9,515.5,431.3,1787.3,2645.1,209.2,78.2,16.5
0.265875,529.4,248.8,1751.0,227.0,2572.3,452.5,432.2,1786,2642.4,209.5,78.1,17.2
0.267875,540.9,244.1,1732.5,221.2,2554.7,420.6,433.1,1784.8,2639.8,209.9,78,17.5
0.269875,551.1,238.8,1717.3,215.1,2558.9,414.5,434,1783.5,2637.3,210.2,78,17.4
0.271875,560.9,236.5,1708.4,216.2,2578.1,425.0,434.9,1782.4,2634.8,210.6,77.9,17
0.273875,571.9,235.8,1703.1,228.8,2602.1,444.6,435.8,1781.2,2632.3,211,77.8,16.5
0.275875,583.4,233.7,1697.3,260.4,2617.1,482.7,436.7,1780.1,2629.9,211.3,77.7,16.1
0.277875,591.4,228.8,1684.5,319.7,2601.2,552.9,437.6,1779.1,2627.6,211.7,77.7,16
0.279875,595.1,223.3,1648.1,413.3,2529.8,623.7,438.5,1778,2625.3,212.1,77.7,16
0.281875,594.8,219.7,1582.6,474.2,2447.7,581.1,439.5,1777.1,2623,212.5,77.7,16.1
0.283875,593.9,218.3,1527.9,458.8,2421.1,495.3,440.4,1776.1,2620.8,212.9,77.8,16.2
0.285875,596.5,222.1,1507.5,424.6,2437.2,442.2,441.4,1775.2,2618.7,213.3,77.9,16.4
0.287875,603.3,229.7,1506.7,406.9,2471.9,406.8,442.3,1774.4,2616.6,213.7,78,16.6
0.289875,612.2,234.2,1505.5,394.9,2507.1,363.0,443.3,1773.5,2614.6,214.2,78.1,17
0.291875,619.2,229.8,1495.4,374.1,2528.1,319.5,444.2,1772.8,2612.6,214.6,78.2,17.5
0.293875,624.5,217.6,1482.2,336.2,2537.3,283.8,445.2,1772,2610.7,215,78.3,17.8
0.295875,630.5,201.5,1476.2,286.8,2538.2,259.2,446.2,1771.3,2608.8,215.5,78.4,18.1
0.297875,637.5,187.6,1478.0,246.4,2532.2,247.7,447.2,1770.7,2607,215.9,78.5,18
0.299875,644.6,176.0,1480.9,220.0,2520.2,244.0,448.2,1770.1,2605.3,216.4,78.6,17.5
0.301875,650.1,166.6,1480.8,210.0,2508.2,242.0,449.2,1769.5,2603.6,216.8,78.7,16.9
0.303875,654.5,158.2,1477.6,214.2,2502.9,237.7,450.2,1769,2602,217.3,78.7,16.3
0.305875,658.3,149.3,1470.5,234.8,2504.6,235.0,451.2,1768.5,2600.4,217.7,78.8,15.8
0.307875,660.5,140.4,1459.8,271.0,2504.8,241.1,452.2,1768.1,2598.9,218.2,78.8,15.5
0.309875,661.4,131.2,1447.1,319.7,2495.8,257.7,453.2,1767.8,2597.5,218.7,78.8,15.5
0.311875,661.2,123.5,1438.3,363.4,2479.9,277.0,454.2,1767.4,2596.1,219.2,78.7,15.6
0.313875,660.3,117.7,1432.7,395.6,2466.1,289.8,455.2,1767.1,2594.8,219.7,78.6,15.7
0.315875,658.9,114.5,1427.6,416.7,2462.8,290.5,456.3,1766.9,2593.6,220.2,78.6,15.6
0.317875,657.3,114.1,1427.9,424.7,2471.9,283.0,457.3,1766.7,2592.4,220.7,78.4,15.2
0.319875,655.3,116.7,1440.5,422.8,2489.1,274.2,458.3,1766.6,2591.3,221.2,78.3,14.6
0.321875,651.6,122.8,1453.5,425.4,2503.5,267.9,459.4,1766.5,2590.2,221.7,78.1,13.7
0.323875,644.4,133.9,1446.6,456.0,2507.5,263.7,460.4,1766.4,2589.2,222.2,77.8,12.9
0.325875,633.3,153.7,1409.7,521.9,2501.0,249.5,461.4,1766.5,2588.3,222.7,77.5,12.2
0.327875,621.6,183.7,1357.8,600.3,2493.1,220.8,462.5,1766.5,2587.4,223.3,77.1,11.9
0.329875,608.6,225.3,1310.4,690.2,2489.3,189.0,463.5,1766.6,2586.6,223.8,76.8,11.8
0.331875,592.7,266.6,1285.3,776.3,2489.5,165.0,464.6,1766.8,2585.9,224.4,76.5,11.8
0.333875,567.9,299.9,1275.8,832.1,2490.6,146.7,465.6,1767,2585.2,225,76.2,12
0.335875,528.6,319.5,1277.6,815.4,2490.7,136.1,466.6,1767.2,2584.6,225.6,75.9,12.2
0.337875,484.1,318.8,1299.7,735.7,2489.6,138.8,467.7,1767.5,2584.1,226.2,75.7,12.3
0.339875,444.0,302.1,1341.1,653.7,2486.8,160.5,468.7,1767.9,2583.6,226.8,75.6,12.5
0.341875,419.5,281.9,1388.3,621.8,2482.6,201.3,469.8,1768.3,2583.2,227.4,75.5,12.7
0.343875,407.3,270.0,1437.3,630.4,2478.7,249.6,470.8,1768.7,2582.9,228.1,75.4,12.9
0.345875,401.6,273.0,1473.1,642.2,2475.5,282.4,471.9,1769.2,2582.6,228.7,75.4,13.2
0.347875,397.7,287.0,1472.9,637.0,2476.8,289.6,472.9,1769.8,2582.4,229.4,75.4,13.5
0.349875,393.1,305.0,1451.9,622.4,2496.0,281.1,474,1770.4,2582.3,230.1,75.5,13.9
0.351875,388.6,319.8,1441.5,604.0,2527.8,256.2,475,1771,2582.2,230.9,75.5,14.3
0.353875,381.7,324.6,1447.1,584.4,2548.7,221.8,476,1771.7,2582.2,231.7,75.5,14.8
0.355875,366.8,308.6,1456.7,567.9,2551.0,193.9,477.1,1772.5,2582.3,232.4,75.6,15.2
0.357875,345.8,272.1,1455.7,558.0,2542.6,181.7,478.1,1773.3,2582.4,233.3,75.6,15.6
0.359875,325.8,227.3,1444.0,552.4,2531.8,185.2,479.1,1774.2,2582.6,234.1,75.7,15.9
0.361875,315.8,196.5,1439.0,565.3,2525.2,201.5,480.1,1775.1,2582.8,235,75.7,16.2
0.363875,317.7,187.3,1459.4,615.4,2526.9,207.9,481.2,1776,2583.1,235.9,75.8,16.5
0.365875,330.1,194.6,1496.9,699.5,2534.4,182.3,482.2,1777,2583.5,236.8,75.9,16.8
0.367875,344.7,202.7,1517.1,813.2,2538.2,157.0,483.2,1778.1,2584,237.7,76,17.3
0.369875,361.9,213.2,1548.4,881.2,2541.0,143.5,484.2,1779.2,2584.5,238.7,76.1,18
0.371875,382.3,222.6,1598.1,799.9,2544.3,140.0,485.2,1780.4,2585.1,239.7,76.2,18.8
0.373875,397.2,217.8,1626.0,691.7,2544.9,154.7,486.2,1781.6,2585.7,240.7,76.3,19.4
0.375875,399.8,198.5,1646.0,639.9,2541.9,202.8,487.2,1782.8,2586.4,241.7,76.5,19.9
0.377875,401.1,176.1,1679.6,594.1,2537.8,268.1,488.1,1784.1,2587.2,242.7,76.8,19.8
0.379875,408.6,156.7,1727.0,498.0,2537.9,323.0,489.1,1785.5,2588,243.7,77.1,19.3
0.381875,418.6,142.4,1764.8,391.9,2544.1,349.0,490.1,1786.9,2588.9,244.8,77.5,18.4
0.383875,428.1,131.6,1790.9,303.9,2555.0,341.0,491,1788.3,2589.9,245.8,77.9,17.6
0.385875,435.5,123.1,1811.4,235.0,2568.8,301.1,492,1789.8,2590.9,246.9,78.4,17.1
0.387875,438.2,117.4,1828.8,191.2,2578.8,268.7,492.9,1791.4,2592,247.9,78.9,17.2
0.389875,436.4,114.5,1847.3,169.4,2582.0,265.5,493.9,1793,2593.1,248.9,79.4,17.9
0.391875,433.0,114.3,1870.1,172.1,2573.0,289.5,494.8,1794.6,2594.3,250,79.9,19
0.393875,429.9,116.2,1906.1,201.3,2547.8,322.5,495.7,1796.3,2595.6,251,80.3,20.1
0.395875,429.2,118.8,1967.6,258.1,2512.2,341.8,496.6,1798.1,2596.9,252,80.6,21
0.397875,432.6,118.9,2053.2,308.7,2487.5,347.9,497.5,1799.9,2598.2,253,80.8,21.3
0.399875,438.6,113.2,2151.3,304.8,2485.4,358.8,498.4,1801.7,2599.7,254,81,21.3
0.401875,442.4,104.9,2219.8,252.8,2508.7,363.8,499.3,1803.6,2601.2,255,81,20.9
0.403875,443.5,98.1,2265.8,202.6,2539.7,358.6,500.1,1805.5,2602.7,255.9,81,20.6
0.405875,443.4,93.2,2306.4,154.3,2577.6,369.4,501,1807.5,2604.3,256.9,81,20.5
0.407875,442.6,89.7,2336.3,106.6,2638.8,390.0,501.8,1809.5,2606,257.8,80.9,20.8
0.409875,440.3,87.6,2354.6,69.8,2725.5,374.7,502.6,1811.6,2607.7,258.7,80.8,21.4
0.411875,436.6,87.7,2362.9,50.9,2797.3,316.7,503.4,1813.7,2609.5,259.6,80.7,22.3
0.413875,432.0,90.3,2365.7,42.4,2842.5,250.6,504.3,1815.8,2611.3,260.6,80.6,23.2
0.415875,427.3,95.5,2365.4,40.1,2868.8,192.5,505,1818,2613.2,261.4,80.6,23.9
0.417875,423.6,102.0,2363.8,42.0,2883.2,148.9,505.8,1820.2,2615.1,262.3,80.5,24.2
0.419875,420.5,108.9,2362.9,46.6,2892.8,116.0,506.6,1822.5,2617.1,263.2,80.5,24.2
0.421875,418.5,113.6,2364.8,51.0,2900.6,95.6,507.3,1824.8,2619.1,264.1,80.4,24.1
0.423875,417.5,115.5,2369.2,53.8,2908.5,83.0,508,1827.2,2621.2,265,80.4,23.9
0.425875,416.2,115.7,2374.5,55.3,2916.7,74.1,508.8,1829.6,2623.3,265.8,80.4,23.6
0.427875,413.2,116.5,2378.5,56.7,2923.4,66.0,509.5,1832,2625.5,266.7,80.4,23.3
0.429875,407.5,119.1,2381.4,59.2,2927.7,57.2,510.1,1834.5,2627.7,267.6,80.3,22.9
0.431875,402.7,122.2,2384.9,62.5,2929.8,50.0,510.8,1837.1,2629.9,268.4,80.3,22.6
0.433875,403.7,124.0,2391.1,65.7,2931.6,45.6,511.5,1839.6,2632.3,269.3,80.2,22.1
0.435875,414.4,121.8,2399.5,68.5,2933.9,44.2,512.1,1842.2,2634.6,270.2,80.2,21.5
0.437875,429.9,114.9,2406.3,73.0,2935.5,45.9,512.7,1844.8,2637,271,80.3,20.6
0.439875,445.2,106.0,2411.5,83.4,2934.6,52.6,513.3,1847.5,2639.5,271.8,80.4,19.3
0.441875,456.8,99.0,2416.2,100.6,2931.0,66.1,513.9,1850.2,2641.9,272.7,80.5,17.8
0.443875,465.7,93.6,2419.6,124.4,2925.9,89.1,514.5,1853,2644.5,273.5,80.8,16.5
0.445875,473.3,89.9,2414.3,156.0,2918.7,124.5,515,1855.8,2647,274.3,81.2,15.7
0.447875,479.5,88.8,2392.6,190.0,2906.2,161.1,515.5,1858.6,2649.6,275.1,81.7,15.8
0.449875,486.0,87.8,2354.6,210.6,2884.6,176.4,516,1861.4,2652.3,275.9,82.3,16.9
0.451875,492.9,83.6,2318.7,201.9,2860.5,161.4,516.5,1864.3,2655,276.7,82.8,18.5
0.453875,499.9,77.0,2291.9,174.5,2839.9,137.7,517,1867.2,2657.7,277.4,83.3,20.2
0.455875,506.5,69.7,2270.7,139.0,2825.3,117.5,517.5,1870.2,2660.4,278.1,83.8,21.4
0.457875,512.4,63.5,2254.5,106.6,2816.7,105.6,517.9,1873.1,2663.2,278.8,84.2,21.9
0.459875,518.6,58.0,2241.6,80.8,2811.4,102.6,518.3,1876.1,2666,279.4,84.6,21.8
0.461875,524.9,54.1,2231.7,64.8,2808.6,109.3,518.7,1879.2,2668.9,280.1,84.9,21.4
0.463875,531.3,50.8,2221.2,55.2,2805.0,121.9,519.1,1882.2,2671.8,280.6,85.1,20.8
0.465875,537.8,47.9,2207.9,50.1,2796.2,133.1,519.4,1885.3,2674.7,281.2,85.3,20.1
0.467875,543.8,45.5,2193.4,49.7,2783.6,137.0,519.7,1888.4,2677.6,281.6,85.4,19.3
0.469875,550.0,43.5,2175.7,54.3,2770.0,139.5,520,1891.6,2680.6,282.1,85.6,18.1
0.471875,555.8,41.8,2154.2,63.0,2757.0,147.1,520.3,1894.8,2683.6,282.4,85.7,16.8
0.473875,561.3,40.3,2126.3,72.3,2742.3,161.3,520.6,1898,2686.6,282.8,85.8,15.6
0.475875,566.4,39.1,2093.7,77.7,2724.9,181.6,520.8,1901.2,2689.7,283,85.9,14.7
0.477875,570.4,38.3,2062.7,80.5,2706.7,203.7,521.1,1904.4,2692.7,283.2,86,14.3
0.479875,573.5,38.1,2029.6,85.6,2688.8,224.0,521.2,1907.7,2695.8,283.4,86.1,14.4
0.481875,575.4,38.3,1997.3,93.6,2676.7,240.7,521.4,1911,2698.9,283.5,86.1,14.8
0.483875,576.4,39.1,1966.1,102.6,2668.7,263.2,521.6,1914.3,2702.1,283.5,86.2,15.3
0.485875,576.4,40.8,1934.3,108.9,2660.2,299.3,521.7,1917.6,2705.2,283.5,86.2,15.8
0.487875,575.3,42.8,1904.9,109.5,2650.8,342.4,521.8,1921,2708.4,283.4,86.3,16
0.489875,573.7,44.7,1877.7,108.3,2641.5,383.9,521.9,1924.3,2711.6,283.2,86.3,16.3
0.491875,572.4,46.3,1855.9,110.5,2630.9,409.2,522,1927.7,2714.8,283,86.3,16.5
0.493875,571.3,47.9,1838.0,119.5,2612.8,420.8,522,1931.1,2718,282.7,86.4,16.7
0.495875,570.7,49.2,1821.3,136.7,2583.2,416.4,522,1934.5,2721.3,282.4,86.4,16.9
0.497875,570.3,49.6,1802.4,153.4,2555.2,390.0,522,1938,2724.5,282,86.4,16.9
0.499875,568.9,48.6,1776.2,160.4,2541.9,354.7,522,1941.4,2727.8,281.5,86.4,16.8
0.501875,565.4,47.7,1747.6,157.4,2543.3,339.7,521.9,1944.9,2731.1,281.1,86.4,16.6
0.503875,560.0,48.6,1721.3,153.0,2545.8,351.5,521.8,1948.3,2734.4,280.5,86.3,16.4
0.505875,553.4,52.2,1702.1,155.0,2540.9,378.3,521.7,1951.8,2737.7,279.9,86.2,16.4
0.507875,547.6,57.2,1692.7,166.1,2534.7,393.1,521.6,1955.3,2741,279.3,86.1,16.6
0.509875,542.8,62.3,1688.7,186.8,2534.3,389.4,521.4,1958.8,2744.3,278.6,85.9,17.1
0.511875,538.6,65.8,1685.9,213.5,2537.2,379.1,521.2,1962.3,2747.6,277.9,85.7,17.8
