time,f1,b1,f2,b2,f3,b3,f1p,f2p,f3p,f0,intensity,harmonicity
0.025406,692.8,167.3,1641.0,174.9,3115.6,483.1,558.2,1372,2263.7,0,57.3,-203.2
0.027406,686.7,186.7,1638.7,226.8,3082.4,523.1,558.2,1372,2263.7,0,58.4,-209.6
0.029406,685.2,174.2,1601.9,351.6,3008.2,609.1,558.2,1371.9,2263.6,0,59.7,-214.4
0.031406,678.2,154.3,1488.1,538.5,2909.1,669.2,558.1,1371.8,2263.6,0,61.4,-212.8
0.033406,662.2,134.7,1308.6,655.9,2823.2,693.9,558.1,1371.7,2263.6,0,63.9,-200
0.035406,642.7,126.1,1133.2,700.4,2710.0,752.2,558.1,1371.6,2263.6,216.5,66.9,-169.8
0.037406,622.5,151.3,970.2,688.7,2578.3,687.5,558,1371.5,2263.6,216.5,70,-125.3
0.039406,601.1,181.2,930.3,551.4,2552.0,593.6,557.9,1371.3,2263.5,216.6,72.9,-76.1
0.041406,582.6,177.5,958.0,408.2,2551.5,579.6,557.9,1371.1,2263.5,216.6,75.5,-31.3
0.043406,573.3,153.7,988.0,293.0,2541.0,584.9,557.8,1370.9,2263.4,216.7,77.7,-0.6
0.045406,573.6,127.8,1014.5,209.9,2530.8,574.6,557.7,1370.7,2263.4,216.8,79.7,13.2
0.047406,580.1,108.2,1037.3,151.5,2529.1,542.7,557.6,1370.4,2263.3,217,81.4,16.2
0.049406,591.2,95.2,1058.1,107.7,2536.7,489.0,557.5,1370.2,2263.3,217.2,82.9,13
0.051406,603.8,90.8,1074.5,79.5,2550.7,428.1,557.4,1369.9,2263.2,217.4,84.1,8.2
0.053406,617.2,94.8,1088.1,61.7,2568.0,372.3,557.3,1369.6,2263.2,217.6,85.1,6.2
0.055406,630.2,107.1,1098.5,52.1,2582.4,339.2,557.2,1369.2,2263.1,217.9,85.9,6.9
0.057406,642.1,123.6,1106.3,48.0,2590.1,332.9,557,1368.9,2263,218.2,86.5,7.5
0.059406,653.6,141.3,1113.9,46.8,2591.1,349.3,556.9,1368.5,2263,218.6,86.9,7.9
0.061406,663.1,154.8,1121.7,48.1,2586.1,383.2,556.7,1368.2,2262.9,219,87.1,8.3
0.063406,671.2,163.4,1131.8,53.1,2575.3,436.8,556.6,1367.8,2262.8,219.4,87.1,8.6
0.065406,677.4,165.5,1145.7,63.8,2554.6,510.3,556.4,1367.4,2262.7,219.9,87,8.8
0.067406,681.3,158.2,1166.8,80.7,2517.7,592.2,556.2,1366.9,2262.7,220.5,86.7,8.8
0.069406,681.9,139.7,1201.4,98.8,2469.4,661.8,556,1366.5,2262.6,221.1,86.3,8.8
0.071406,679.2,119.9,1239.6,104.5,2442.7,693.9,555.9,1366.1,2262.5,221.7,86,9
0.073406,677.2,107.5,1268.9,99.7,2441.4,690.3,555.6,1365.6,2262.4,222.4,85.8,9.3
0.075406,677.7,102.2,1286.0,94.1,2447.4,643.9,555.4,1365.1,2262.3,223.1,85.7,10.1
0.077406,679.5,99.3,1298.5,91.3,2451.7,569.3,555.2,1364.7,2262.2,223.9,85.7,11.1
0.079406,682.0,97.3,1312.6,92.0,2458.0,495.8,555,1364.2,2262.2,224.7,85.6,12.3
0.081406,684.9,97.6,1328.8,97.8,2467.0,455.9,554.7,1363.7,2262.1,225.6,85.6,13.2
0.083406,689.1,101.0,1349.3,110.1,2476.3,454.4,554.5,1363.2,2262,226.5,85.4,13.7
0.085406,695.2,108.4,1374.9,129.5,2486.3,497.8,554.2,1362.7,2261.9,227.5,85.2,13.6
0.087406,703.7,120.4,1406.4,154.7,2500.8,588.9,554,1362.2,2261.8,228.4,84.8,13.1
0.089406,715.0,136.9,1446.9,181.8,2519.0,740.9,553.7,1361.6,2261.7,229.4,84.4,12.4
0.091406,725.7,155.0,1484.5,198.3,2514.3,909.9,553.4,1361.1,2261.7,230.5,83.9,11.6
0.093406,734.3,177.8,1504.9,203.6,2452.4,982.5,553.1,1360.6,2261.6,231.5,83.4,11
0.095406,741.5,206.9,1499.5,200.0,2383.4,905.5,552.8,1360.1,2261.5,232.6,83.1,10.4
0.097406,749.6,240.7,1486.6,189.6,2356.8,842.6,552.5,1359.6,2261.4,233.7,82.9,9.8
0.099406,761.5,282.0,1481.7,180.1,2357.4,874.2,552.1,1359.1,2261.4,234.8,82.7,9.3
0.101406,775.7,325.6,1486.4,176.0,2359.0,983.5,551.8,1358.6,2261.3,235.9,82.7,8.8
0.103406,789.7,369.6,1495.5,174.9,2323.2,1131.3,551.4,1358.1,2261.2,237,82.7,8.6
0.105406,792.2,396.8,1501.6,173.1,2203.9,1172.6,551.1,1357.6,2261.2,238,82.6,8.6
0.107406,774.8,383.8,1500.0,164.8,2086.8,996.9,550.7,1357.1,2261.1,239.1,82.6,8.8
0.109406,747.9,331.3,1494.6,147.0,2039.2,785.2,550.3,1356.6,2261.1,240.2,82.5,9.1
0.111406,729.2,278.9,1491.7,130.9,2034.8,669.8,549.9,1356.1,2261.1,241.2,82.4,9.5
0.113406,721.1,246.3,1492.5,121.7,2048.8,640.4,549.5,1355.7,2261,242.2,82.3,9.8
0.115406,720.6,238.1,1497.9,116.0,2078.1,691.0,549.1,1355.2,2261,243.2,82.2,10
0.117406,722.1,245.3,1506.0,107.8,2122.8,799.6,548.7,1354.8,2261,244.2,82.1,10.2
0.119406,721.8,258.2,1513.0,96.3,2183.1,946.1,548.2,1354.4,2261,245.1,82,10.5
0.121406,719.1,266.5,1516.0,86.6,2246.5,1102.5,547.8,1354,2261,246,81.9,10.6
0.123406,714.5,263.0,1515.8,80.2,2305.1,1293.8,547.3,1353.6,2261,246.9,81.7,10.8
0.125406,706.9,249.7,1513.2,77.8,2317.1,1533.8,546.8,1353.2,2261,247.7,81.5,11
0.127406,695.2,239.4,1509.3,79.5,2239.9,1764.3,546.4,1352.9,2261,248.5,81.2,11.1
0.129406,677.5,241.7,1504.8,86.3,2085.9,1925.1,545.9,1352.6,2261,249.3,80.8,11.2
0.131406,653.1,262.0,1500.4,100.1,1917.6,1972.8,545.3,1352.3,2261.1,250.1,80.4,11.2
0.133406,612.1,303.8,1494.4,127.7,1789.5,1882.6,544.8,1352,2261.1,250.8,79.9,11.2
0.135406,539.6,350.3,1481.9,176.5,1783.2,1614.5,544.3,1351.8,2261.2,251.5,79.5,10.9
0.137406,441.1,343.7,1453.9,226.1,1882.5,1194.6,543.7,1351.6,2261.3,252.2,79.4,10.3
0.139406,355.6,269.6,1433.5,226.3,1964.3,886.0,543.2,1351.4,2261.4,252.9,79.5,9.7
0.141406,314.0,204.3,1442.7,214.7,1958.8,815.7,542.6,1351.3,2261.5,253.6,79.8,9.5
0.143406,297.7,174.4,1455.0,227.4,1885.7,829.4,542,1351.1,2261.6,254.2,80.2,9.8
0.145406,292.6,163.3,1456.2,263.1,1822.5,805.8,541.4,1351.1,2261.8,254.8,80.7,10.9
0.147406,291.8,155.2,1447.7,302.0,1819.0,775.9,540.8,1351,2261.9,255.4,81.1,12.7
0.149406,292.4,146.3,1439.3,339.1,1858.6,783.7,540.2,1351,2262.1,256,81.4,14.7
0.151406,293.0,137.9,1439.1,374.3,1907.3,823.8,539.5,1351.1,2262.3,256.6,81.7,16.8
0.153406,293.2,132.0,1451.7,393.3,1947.0,919.1,538.9,1351.2,2262.5,257.2,81.8,18.4
0.155406,292.5,128.4,1471.9,364.3,1979.6,1097.9,538.2,1351.3,2262.7,257.8,81.9,19.7
0.157406,290.5,120.7,1482.4,309.0,2018.9,1287.2,537.5,1351.4,2262.9,258.4,82,20.8
0.159406,286.8,103.7,1481.8,258.7,2086.2,1411.0,536.8,1351.7,2263.2,258.9,82,21.9
0.161406,282.7,83.1,1473.0,233.2,2168.1,1384.6,536.1,1351.9,2263.5,259.5,82,22.6
0.163406,279.5,67.0,1458.1,236.7,2193.7,1223.6,535.4,1352.2,2263.8,260.1,82,23.2
0.165406,278.2,61.2,1446.0,270.1,2116.6,1076.1,534.7,1352.6,2264.1,260.6,82,23.4
0.167406,278.6,63.3,1452.2,321.3,1978.9,1004.7,533.9,1353,2264.4,261.2,82,23.3
0.169406,279.7,68.3,1490.2,367.5,1816.4,996.0,533.2,1353.5,2264.8,261.7,81.9,23
0.171406,280.3,69.7,1543.4,337.1,1688.4,1081.7,532.4,1354,2265.2,262.3,81.8,22.7
0.173406,279.8,64.1,1567.0,260.4,1632.9,1203.1,531.6,1354.6,2265.6,262.8,81.6,22.5
0.175406,278.5,54.2,1572.0,211.6,1623.0,1261.6,530.8,1355.2,2266,263.4,81.3,22.5
0.177406,277.7,46.0,1569.5,198.5,1623.6,1244.2,530,1355.9,2266.4,263.9,81.1,22.4
0.179406,277.4,41.4,1556.5,219.8,1625.5,1148.1,529.1,1356.7,2266.9,264.4,80.8,22.4
0.181406,277.3,39.3,1529.9,263.5,1632.0,996.7,528.3,1357.5,2267.4,265,80.6,22.4
0.183406,276.9,37.5,1497.1,311.6,1632.8,825.6,527.4,1358.3,2267.9,265.5,80.4,22.6
0.185406,276.6,35.8,1479.0,360.9,1621.0,700.9,526.5,1359.3,2268.5,266.1,80.3,23
0.187406,276.4,34.9,1490.0,426.5,1591.0,647.8,525.6,1360.3,2269.1,266.7,80.3,23.5
0.189406,276.7,34.9,1496.9,753.1,1560.3,426.1,524.7,1361.4,2269.7,267.3,80.3,24.1
0.191406,277.5,35.5,1435.1,1005.4,1583.9,358.6,523.8,1362.5,2270.3,267.9,80.3,24.7
0.193406,278.8,36.7,1359.7,1385.4,1592.8,283.3,522.9,1363.7,2271,268.5,80.4,25.2
0.195406,280.2,38.1,1237.1,1905.0,1598.4,205.1,521.9,1365,2271.7,269.2,80.5,25.7
0.197406,280.9,38.0,1091.3,2309.6,1603.9,158.5,521,1366.3,2272.4,269.9,80.7,26.2
0.199406,280.3,35.0,1048.3,2370.7,1606.5,144.6,520,1367.8,2273.1,270.6,80.8,26.7
0.201406,279.0,30.7,1111.6,2227.3,1602.5,160.3,519,1369.3,2273.9,271.3,80.9,27.1
0.203406,277.8,27.3,1207.6,1982.9,1590.3,217.8,518,1370.8,2274.7,272.1,81,27.5
0.205406,277.1,25.6,1302.5,1589.2,1576.1,364.1,517,1372.5,2275.6,273,81.1,27.9
0.207406,276.6,24.5,1293.3,985.5,1650.6,692.3,515.9,1374.2,2276.4,273.9,81.1,28.4
0.209406,276.3,23.7,1162.6,764.7,1822.2,696.8,514.9,1376,2277.4,274.8,81.1,28.7
0.211406,276.3,23.2,1173.3,793.1,1856.0,657.3,513.8,1377.9,2278.3,275.8,81.1,28.9
0.213406,276.1,21.5,1376.1,807.3,1852.2,814.9,512.8,1379.9,2279.3,276.8,81.1,28.8
0.215406,275.6,18.9,1513.9,433.1,2173.8,1017.8,511.7,1381.9,2280.3,277.9,81,28.5
0.217406,275.5,19.5,1562.7,275.5,2360.6,681.4,510.6,1384,2281.3,279,80.9,28.1
0.219406,276.9,26.7,1603.7,202.2,2414.0,566.2,509.4,1386.2,2282.4,280.1,80.8,27.4
0.221406,280.4,43.5,1617.2,156.7,2444.3,593.9,508.3,1388.5,2283.5,281.2,80.7,26.3
0.223406,287.9,79.5,1605.9,124.6,2468.6,718.7,507.2,1390.9,2284.7,282.4,80.6,24.5
0.225406,301.8,144.7,1581.6,108.5,2487.8,997.2,506,1393.3,2285.9,283.6,80.6,21.5
0.227406,324.6,223.1,1555.7,101.4,2461.5,1471.3,504.8,1395.9,2287.1,284.8,80.7,17.5
0.229406,358.8,279.0,1532.3,94.4,2389.2,1970.5,503.6,1398.5,2288.4,285.9,81,13.2
0.231406,393.0,298.4,1517.9,86.1,2499.5,2470.7,502.4,1401.2,2289.7,287.1,81.3,9.5
0.233406,422.5,310.3,1512.7,77.9,2877.1,1792.8,501.2,1404,2291,288.2,81.7,7.4
0.235406,448.0,329.3,1513.8,70.2,2788.7,1509.4,500,1406.9,2292.4,289.3,82,7.1
0.237406,475.6,351.7,1515.5,62.8,2756.6,1311.7,498.8,1409.9,2293.8,290.3,82.2,8.2
0.239406,511.7,359.0,1513.7,55.5,2726.5,1090.6,497.5,1413,2295.3,291.3,82.2,10.1
0.241406,540.4,338.1,1508.0,50.7,2706.6,899.4,496.3,1416.1,2296.8,292.2,82.1,12
0.243406,553.4,314.3,1498.9,50.0,2707.1,766.8,495,1419.4,2298.3,293,81.8,13.5
0.245406,552.1,305.4,1487.3,55.5,2727.1,725.8,493.7,1422.7,2299.9,293.8,81.4,14.5
0.247406,541.2,300.5,1474.1,67.8,2752.3,775.7,492.4,1426.1,2301.5,294.5,81,15.4
0.249406,527.7,280.3,1458.6,87.1,2754.9,907.7,491.1,1429.6,2303.2,295,80.5,16.3
0.251406,520.7,252.4,1442.6,107.4,2698.6,1033.9,489.8,1433.2,2304.9,295.5,80,17
0.253406,516.7,233.8,1425.7,125.1,2611.7,1050.7,488.4,1436.9,2306.6,296,79.8,17.5
0.255406,509.3,231.0,1409.0,138.6,2551.2,1007.9,487.1,1440.7,2308.4,296.3,79.6,17.8
0.257406,497.8,238.0,1393.1,147.3,2510.0,965.6,485.7,1444.6,2310.2,296.5,79.6,17.8
0.259406,484.7,248.1,1377.6,150.0,2473.4,903.8,484.4,1448.6,2312.1,296.7,79.6,17.6
0.261406,475.1,256.9,1365.6,146.4,2448.3,818.9,483,1452.6,2314,296.7,79.7,17.5
0.263406,470.4,265.0,1357.4,139.0,2435.4,719.0,481.6,1456.8,2316,296.7,79.6,17.5
0.265406,471.5,275.5,1354.1,130.1,2432.7,615.2,480.2,1461,2318,296.7,79.4,17.8
0.267406,478.1,292.7,1355.4,121.3,2434.4,510.2,478.8,1465.3,2320,296.5,79.1,18.2
0.269406,490.6,319.6,1360.1,113.1,2433.9,410.6,477.4,1469.7,2322.1,296.3,78.7,18.6
0.271406,505.3,348.7,1365.3,108.2,2430.8,344.8,476,1474.2,2324.3,296.1,78.2,18.9
0.273406,519.4,375.3,1370.4,107.8,2428.9,310.6,474.6,1478.8,2326.5,295.8,77.7,19
0.275406,530.2,392.5,1376.2,112.1,2431.6,302.6,473.1,1483.5,2328.7,295.5,77.3,18.8
0.277406,535.7,393.7,1383.5,120.7,2437.1,312.0,471.7,1488.3,2331,295.2,77,18.3
0.279406,531.4,371.4,1393.1,136.1,2440.0,342.4,470.2,1493.1,2333.3,294.8,76.9,17.7
0.281406,517.7,330.5,1402.5,161.1,2434.4,395.8,468.8,1498.1,2335.7,294.4,76.8,17.2
0.283406,503.9,288.7,1413.4,202.1,2426.9,445.7,467.3,1503.1,2338.1,294,76.8,17.1
0.285406,495.9,263.3,1427.2,265.0,2443.2,457.6,465.8,1508.2,2340.5,293.6,76.8,17.3
0.287406,493.2,254.7,1442.8,348.5,2481.7,443.3,464.3,1513.4,2343,293.2,76.8,17.7
0.289406,494.7,256.9,1460.4,410.8,2524.1,413.0,462.9,1518.7,2345.6,292.8,76.7,18.3
0.291406,498.1,263.2,1472.4,375.3,2552.1,382.1,461.4,1524.1,2348.2,292.4,76.6,18.8
0.293406,503.5,276.2,1473.1,297.2,2557.8,377.3,459.9,1529.5,2350.8,291.9,76.4,19.3
0.295406,509.4,295.6,1464.5,248.4,2535.7,416.7,458.4,1535.1,2353.5,291.5,76.2,19.7
0.297406,510.5,313.7,1450.1,233.2,2486.7,479.1,456.9,1540.7,2356.2,291.1,75.9,20.1
0.299406,505.2,325.2,1432.2,234.4,2429.6,525.7,455.4,1546.4,2359,290.7,75.6,20.5
0.301406,501.9,334.2,1424.9,231.7,2422.7,520.9,453.8,1552.2,2361.8,290.3,75.3,20.7
0.303406,506.6,347.2,1440.0,214.7,2473.8,467.9,452.3,1558,2364.7,289.9,75.1,20.7
0.305406,512.6,348.1,1472.1,185.2,2527.6,407.5,450.8,1564,2367.6,289.4,75,20.3
0.307406,511.7,332.6,1502.5,154.1,2554.8,382.8,449.3,1570,2370.6,289,75,19.5
0.309406,509.7,318.3,1521.9,130.1,2558.3,392.3,447.8,1576.1,2373.6,288.5,75.2,18.7
0.311406,512.4,320.2,1527.9,120.4,2543.8,412.8,446.2,1582.2,2376.7,288,75.4,17.9
0.313406,517.9,333.7,1525.5,122.0,2517.7,420.0,444.7,1588.5,2379.8,287.4,75.7,17.5
0.315406,521.1,348.4,1520.0,132.1,2485.9,410.5,443.2,1594.8,2382.9,286.9,76,17.5
0.317406,521.0,360.6,1519.1,149.7,2450.2,401.6,441.7,1601.2,2386.1,286.3,76.5,17.8
0.319406,522.1,377.8,1536.7,176.7,2412.1,407.3,440.1,1607.6,2389.3,285.6,76.9,18.3
0.321406,528.6,395.1,1585.8,197.0,2395.2,438.1,438.6,1614.1,2392.6,284.9,77.4,18.7
0.323406,533.0,380.6,1656.7,176.6,2425.1,493.7,437.1,1620.7,2395.9,284.1,77.9,18.9
0.325406,523.4,319.7,1707.1,127.8,2492.2,545.5,435.6,1627.3,2399.3,283.2,78.4,19
0.327406,512.5,254.1,1731.2,88.8,2554.3,580.2,434.1,1634,2402.7,282.3,78.9,19.1
0.329406,507.5,204.2,1743.1,63.7,2597.9,614.5,432.6,1640.8,2406.2,281.3,79.4,19.1
0.331406,507.4,174.1,1748.9,52.0,2613.8,663.9,431,1647.6,2409.7,280.2,79.8,18.9
0.333406,509.4,154.0,1752.7,49.8,2596.0,735.6,429.5,1654.5,2413.2,279,80.2,18.3
0.335406,511.7,139.9,1756.0,57.7,2537.9,800.5,428,1661.5,2416.8,277.8,80.5,17.3
0.337406,513.6,130.2,1761.0,79.1,2455.2,819.0,426.5,1668.5,2420.4,276.5,80.7,15.7
0.339406,515.4,125.3,1775.2,124.9,2362.8,796.9,425,1675.5,2424.1,275,80.8,14
0.341406,517.4,126.7,1812.4,191.1,2288.8,789.3,423.6,1682.6,2427.8,273.5,80.9,12.6
0.343406,520.3,133.1,1876.9,222.5,2276.8,821.1,422.1,1689.8,2431.6,271.9,81,11.7
0.345406,523.4,139.8,1916.8,203.3,2328.6,738.1,420.6,1697,2435.4,270.2,81.1,11.5
0.347406,524.7,143.4,1935.0,203.1,2348.3,613.5,419.1,1704.2,2439.2,268.5,81.1,11.9
0.349406,525.6,144.9,1959.3,231.4,2338.6,545.4,417.7,1711.5,2443.1,266.6,81.2,12.6
0.351406,527.5,145.6,2007.6,276.2,2300.7,569.6,416.2,1718.8,2447,264.7,81.2,13.1
0.353406,529.0,144.6,2096.6,262.3,2208.8,794.4,414.8,1726.2,2451,262.7,81.2,13.3
0.355406,527.5,139.7,2067.1,1200.5,2139.9,183.6,413.4,1733.6,2455,260.6,81.2,13.1
0.357406,524.5,131.9,1849.5,1252.4,2162.0,153.8,411.9,1741,2459,258.5,81.1,12.7
0.359406,522.3,124.3,1752.2,1067.0,2183.8,139.8,410.5,1748.5,2463.1,256.3,81,12.2
0.361406,522.4,121.7,1725.0,945.8,2200.6,124.0,409.1,1756,2467.2,254.1,80.7,11.5
0.363406,526.7,127.8,1718.3,899.3,2209.0,105.2,407.8,1763.6,2471.3,251.8,80.3,10.8
0.365406,538.1,146.3,1718.0,916.9,2210.2,91.0,406.4,1771.1,2475.5,249.5,79.9,9.9
0.367406,557.1,174.8,1721.0,971.2,2207.4,85.2,405,1778.7,2479.7,247.1,79.4,8.8
0.369406,580.5,208.0,1734.1,1032.4,2201.7,88.4,403.7,1786.3,2484,244.8,79,7.7
0.371406,593.5,237.7,1754.9,1067.1,2194.8,99.7,402.3,1794,2488.2,242.4,78.7,6.8
0.373406,587.1,268.2,1771.9,1068.1,2188.8,116.9,401,1801.6,2492.6,240,78.6,6.2
0.375406,563.8,294.9,1776.9,1034.2,2184.5,135.9,399.7,1809.3,2496.9,237.6,78.6,6
0.377406,535.8,311.2,1778.4,995.2,2176.8,154.5,398.4,1817,2501.3,235.2,78.5,6.2
0.379406,510.1,316.8,1791.4,983.9,2156.7,175.9,397.1,1824.7,2505.7,232.8,78.5,6.5
0.381406,492.6,313.7,1821.5,1020.0,2120.1,196.8,395.9,1832.4,2510.1,230.4,78.4,6.9
0.383406,477.7,307.8,1868.9,1108.4,2067.6,210.2,394.7,1840.1,2514.6,228.1,78.3,7.4
0.385406,456.1,297.2,1923.0,1179.2,2015.6,219.0,393.4,1847.8,2519.1,225.8,78.2,7.9
0.387406,425.4,270.0,1968.5,240.5,1981.0,1134.9,392.2,1855.6,2523.6,223.5,78.1,8.5
0.389406,393.0,223.6,1911.2,250.7,2068.4,1058.4,391,1863.3,2528.2,221.3,78,9.1
0.391406,371.5,175.0,1866.7,218.0,2158.4,1068.5,389.9,1871,2532.8,219.1,77.9,9.6
0.393406,360.8,131.7,1842.6,181.1,2234.2,1139.2,388.7,1878.7,2537.4,217,77.9,10
0.395406,360.2,104.3,1832.1,164.2,2297.9,1313.6,387.6,1886.4,2542,214.9,78,10
0.397406,365.5,96.4,1828.9,167.8,2350.8,1874.4,386.5,1894.1,2546.7,212.9,78.1,9.8
0.399406,371.0,102.3,1828.9,187.4,2106.9,3199.3,385.4,1901.8,2551.3,210.9,78.3,9.6
0.401406,371.2,109.5,1415.6,4419.6,1831.0,222.0,384.4,1909.5,2556,209,78.6,9.3
0.403406,365.9,109.6,631.2,4729.9,1840.9,269.2,383.3,1917.2,2560.8,207.2,78.8,9.2
0.405406,360.5,106.4,1860.2,295.0,2992.7,499.2,382.3,1924.8,2565.5,205.5,79,8.9
0.407406,363.4,108.6,1871.2,274.7,2977.6,530.5,381.3,1932.5,2570.3,203.8,79,8.6
0.409406,382.2,118.2,1860.7,226.0,2927.8,462.2,380.3,1940.1,2575,202.2,79,8.3
0.411406,409.7,118.6,1840.0,186.5,2891.2,346.4,379.4,1947.6,2579.8,200.6,78.9,8.5
0.413406,428.9,109.5,1821.5,171.7,2874.9,267.2,378.5,1955.2,2584.6,199.1,78.8,9.4
0.415406,435.0,107.1,1815.4,183.4,2870.4,242.5,377.6,1962.7,2589.5,197.7,78.7,11.5
0.417406,434.5,110.2,1824.2,205.2,2874.1,254.2,376.7,1970.2,2594.3,196.3,78.7,14.7
0.419406,432.8,112.7,1842.6,218.4,2884.8,282.1,375.9,1977.7,2599.2,195,78.8,18
0.421406,431.7,113.0,1861.4,217.6,2902.7,305.8,375.1,1985.1,2604,193.7,78.8,20.9
0.423406,430.4,112.6,1878.6,209.6,2934.4,317.5,374.3,1992.5,2608.9,192.4,78.8,22.5
0.425406,429.4,112.9,1890.4,200.0,2978.6,316.1,373.5,1999.8,2613.8,191.2,78.8,22.3
0.427406,430.3,113.9,1893.0,194.4,3020.4,306.6,372.8,2007.1,2618.7,190,78.7,20.9
0.429406,431.8,115.0,1885.7,195.0,3044.6,293.6,372.1,2014.3,2623.6,188.9,78.6,19
0.431406,431.3,115.1,1872.3,197.4,3043.7,279.1,371.4,2021.5,2628.5,187.8,78.5,17.2
0.433406,427.9,113.2,1857.3,193.8,3026.7,253.7,370.8,2028.7,2633.4,186.7,78.4,16.2
0.435406,423.5,109.5,1846.8,182.7,3005.5,213.7,370.2,2035.8,2638.3,185.6,78.4,16.2
0.437406,420.3,104.7,1843.0,169.0,2987.2,171.2,369.6,2042.8,2643.2,184.5,78.3,16.9
0.439406,417.5,100.1,1845.2,158.1,2970.8,136.0,369,2049.8,2648.1,183.5,78.3,17.8
0.441406,413.4,97.0,1850.7,156.3,2956.9,116.6,368.5,2056.7,2653,182.4,78.2,18.6
0.443406,408.1,93.4,1855.2,165.1,2944.3,113.3,368,2063.6,2658,181.3,78.2,18.9
0.445406,402.8,88.7,1853.9,182.2,2934.2,126.3,367.5,2070.4,2662.9,180.3,78.2,18.8
0.447406,398.4,83.9,1845.6,200.3,2925.7,152.9,367.1,2077.1,2667.8,179.2,78.1,18.5
0.449406,395.4,79.4,1831.2,211.9,2914.3,195.0,366.7,2083.8,2672.7,178.2,78.1,17.9
0.451406,393.0,76.1,1818.6,214.6,2900.1,244.8,366.4,2090.4,2677.6,177.1,78.1,17.3
0.453406,388.8,72.9,1817.4,217.5,2891.1,294.3,366,2096.9,2682.5,176.1,78,16.6
0.455406,381.5,69.3,1835.7,229.6,2899.6,336.1,365.7,2103.3,2687.4,175.1,78,15.7
0.457406,372.3,65.1,1872.7,252.7,2927.5,381.2,365.5,2109.7,2692.2,174,78,14.7
0.459406,362.6,61.2,1924.8,283.4,2977.6,446.7,365.3,2116,2697.1,173,77.9,13.6
0.461406,354.8,60.1,1974.4,310.9,3052.3,522.3,365.1,2122.2,2702,172,77.8,12.8
0.463406,348.2,62.8,2011.5,331.4,3164.9,579.4,364.9,2128.3,2706.8,171,77.6,12.5
0.465406,314.5,2293.7,342.9,67.7,2027.9,346.8,364.8,2134.4,2711.6,170,77.3,13
0.467406,340.1,72.5,484.6,2216.8,2031.6,396.2,364.7,2140.3,2716.4,169,77,14.2
0.469406,338.8,76.8,2032.0,560.1,3337.8,1075.6,364.7,2146.2,2721.2,168.1,76.7,15.6
0.471406,335.6,78.9,2003.0,825.0,2816.2,1371.5,364.6,2152,2726,167.2,76.4,16.8
0.473406,328.7,79.5,1974.5,999.4,2676.2,960.3,364.7,2157.7,2730.8,166.3,76.1,17.2
0.475406,319.5,80.1,2000.1,1056.3,2642.8,874.7,364.7,2163.3,2735.5,165.4,75.7,16.8
0.477406,310.0,82.4,2042.7,976.2,2651.9,896.4,364.8,2168.8,2740.2,164.6,75.4,15.8
0.479406,302.3,90.0,2068.3,767.6,2719.4,918.5,365,2174.2,2744.9,163.8,75,14.5
0.481406,301.5,107.4,2061.1,573.4,2779.8,839.7,365.1,2179.5,2749.5,163.1,74.6,13.3
0.483406,310.5,134.0,2045.5,449.4,2777.0,682.2,365.3,2184.7,2754.2,162.4,74.3,12.4
0.485406,320.6,150.4,2070.4,385.4,2749.2,491.9,365.6,2189.8,2758.8,161.7,74.1,12.1
0.487406,313.5,136.7,2164.8,331.1,2762.6,451.4,365.9,2194.8,2763.4,161.1,73.8,12.1
0.489406,302.4,104.0,2239.9,271.8,2802.5,493.4,366.2,2199.7,2767.9,160.5,73.6,12.2
0.491406,301.0,89.5,2262.6,243.6,2822.2,528.6,366.5,2204.5,2772.4,160,73.5,12.1
0.493406,311.6,93.7,2270.4,211.5,2841.3,479.1,366.9,2209.2,2776.9,159.5,73.5,11.8
0.495406,330.9,94.6,2281.0,181.4,2871.2,371.8,367.4,2213.8,2781.4,159,73.7,10.7
0.497406,345.9,80.7,2295.0,168.5,2895.1,281.4,367.8,2218.3,2785.8,158.6,74.1,9.3
0.499406,352.1,65.1,2321.4,179.9,2910.1,218.6,368.4,2222.6,2790.1,158.2,74.7,7.7
0.501406,353.8,59.4,2374.8,212.9,2915.7,193.4,368.9,2226.9,2794.5,157.8,75.3,6.6
0.503406,355.3,63.5,2456.2,232.6,2923.7,199.5,369.5,2231,2798.8,157.4,75.8,6.4
0.505406,355.9,71.7,2519.9,228.7,2939.0,223.8,370.1,2235.1,2803,157,76.3,7.4
0.507406,353.0,77.2,2558.8,238.7,2954.8,259.2,370.8,2239,2807.2,156.7,76.7,9.3
0.509406,346.8,78.3,2596.6,276.0,2965.5,313.1,371.5,2242.8,2811.4,156.3,76.9,11.7
0.511406,341.0,76.4,2643.0,331.4,2959.9,377.2,372.2,2246.4,2815.5,156,77.1,13.8
0.513406,337.5,75.0,2702.1,392.1,2927.8,427.5,373,2250,2819.6,155.6,77.3,15.3
