time,f1,b1,f2,b2,f3,b3,f1p,f2p,f3p,f0,intensity,harmonicity
0.025250,443.4,505.0,846.6,640.4,1889.7,593.9,681.4,1778.1,2142.6,179.2,72.5,7.2
0.027250,521.7,437.9,853.1,508.2,1842.5,508.4,681.4,1778.2,2142.7,179.2,72.9,6
0.029250,595.5,315.4,915.7,518.2,1785.5,514.2,681.4,1778.3,2142.9,179.2,73.4,4.8
0.031250,643.4,222.4,997.9,555.7,1718.0,537.8,681.3,1778.5,2143.1,179.3,73.9,3.8
0.033250,675.5,157.7,1088.6,591.1,1649.4,549.8,681.2,1778.8,2143.5,179.3,74.4,3.1
0.035250,693.6,119.9,1182.4,630.3,1591.8,564.2,681.1,1779.1,2143.9,179.4,75,3
0.037250,704.1,98.7,1316.4,686.4,1510.0,605.3,680.9,1779.4,2144.3,179.4,75.4,3.6
0.039250,711.8,88.0,1431.2,402.7,1458.4,1039.5,680.8,1779.8,2144.9,179.5,75.8,4.8
0.041250,719.1,84.2,1443.2,320.2,1504.2,1300.2,680.6,1780.3,2145.5,179.6,76.1,6.3
0.043250,728.2,85.0,1461.1,285.2,1543.9,1568.0,680.4,1780.8,2146.2,179.7,76.3,7.9
0.045250,738.6,90.0,1481.7,275.2,1581.9,1865.2,680.2,1781.4,2147,179.8,76.5,9.1
0.047250,751.4,98.4,1504.5,276.1,1639.8,2268.9,680,1782,2147.8,179.9,76.6,10
0.049250,767.0,107.6,1532.5,273.7,1829.9,3035.1,679.7,1782.7,2148.7,180.1,76.7,10.8
0.051250,780.1,112.4,1561.8,255.8,2523.5,3039.8,679.4,1783.4,2149.7,180.2,76.9,11.5
0.053250,788.4,113.9,1590.9,228.2,2704.7,2580.8,679.1,1784.2,2150.7,180.4,77.1,12.1
0.055250,792.0,115.8,1616.3,208.8,2773.7,2627.3,678.8,1785,2151.8,180.5,77.4,12.5
0.057250,794.2,120.4,1641.5,201.8,2705.6,3872.3,678.5,1785.9,2153,180.7,77.7,12.8
0.059250,797.0,126.9,1549.6,2719.6,1668.0,204.3,678.1,1786.8,2154.2,180.9,78.1,12.9
0.061250,800.8,132.1,1522.7,2079.7,1691.1,211.5,677.8,1787.8,2155.5,181.1,78.4,12.8
0.063250,804.5,135.8,1531.6,1765.6,1713.4,227.7,677.4,1788.8,2156.9,181.2,78.7,12.7
0.065250,806.1,138.0,1553.0,1571.7,1737.9,258.3,677,1789.8,2158.3,181.4,79,12.6
0.067250,806.6,138.7,1572.6,1431.9,1772.3,299.7,676.6,1790.9,2159.8,181.7,79.2,12.4
0.069250,807.8,136.5,1584.4,1375.3,1817.8,326.4,676.1,1792.1,2161.3,181.9,79.4,12.3
0.071250,809.7,131.3,1599.8,1430.5,1853.3,315.0,675.7,1793.2,2162.9,182.1,79.5,12
0.073250,810.7,123.5,1624.7,1559.7,1872.7,278.9,675.2,1794.5,2164.6,182.3,79.7,11.7
0.075250,809.0,115.8,1646.3,1680.2,1880.7,241.6,674.7,1795.7,2166.3,182.5,79.9,11.3
0.077250,804.0,108.4,1666.0,1751.0,1887.3,213.2,674.2,1797,2168.1,182.8,80.2,10.7
0.079250,796.0,100.3,1698.6,1738.5,1897.5,199.7,673.6,1798.4,2169.9,183,80.5,9.9
0.081250,786.9,92.1,1737.0,1609.6,1912.9,204.1,673.1,1799.7,2171.8,183.2,80.8,9.1
0.083250,776.5,82.9,1766.3,1395.4,1936.7,221.2,672.5,1801.1,2173.8,183.5,81.2,8.4
0.085250,766.9,73.7,1782.6,1215.6,1965.5,236.0,672,1802.6,2175.7,183.7,81.6,8.1
0.087250,758.0,64.6,1793.4,1098.0,1996.4,236.3,671.4,1804,2177.8,183.9,81.9,8.2
0.089250,749.3,56.0,1804.4,1042.2,2024.7,216.9,670.8,1805.5,2179.9,184.1,82.2,8.6
0.091250,741.9,49.5,1817.1,1036.7,2043.8,188.9,670.2,1807,2182,184.3,82.5,9.2
0.093250,734.5,44.3,1833.5,1049.9,2057.5,161.1,669.5,1808.6,2184.2,184.6,82.6,9.7
0.095250,727.2,40.7,1851.2,1056.3,2066.5,141.1,668.9,1810.1,2186.4,184.8,82.7,9.9
0.097250,719.9,37.8,1869.7,1051.2,2072.8,127.7,668.2,1811.7,2188.7,185,82.7,9.6
0.099250,711.8,35.8,1892.9,1047.2,2077.9,119.8,667.6,1813.3,2191,185.2,82.5,9.1
0.101250,703.0,35.9,1927.2,1063.2,2082.1,118.1,666.9,1815,2193.3,185.4,82.2,8.5
0.103250,692.4,38.7,1994.6,1107.2,2085.2,123.2,666.2,1816.6,2195.7,185.6,81.9,7.9
0.105250,680.3,44.7,2086.6,136.7,2114.1,1111.3,665.5,1818.3,2198.1,185.8,81.6,7.6
0.107250,664.7,52.9,2087.3,161.9,2238.2,918.1,664.8,1820,2200.5,186,81.2,7.5
0.109250,643.1,60.0,2090.4,209.3,2259.2,657.6,664,1821.6,2203,186.1,80.9,7.7
0.111250,618.1,60.3,2106.7,298.4,2216.6,489.8,663.3,1823.3,2205.5,186.3,80.7,7.8
0.113250,592.4,52.0,2071.8,525.8,2209.8,267.4,662.6,1825,2208,186.5,80.7,8
0.115250,574.0,40.7,2016.8,638.5,2223.1,195.1,661.8,1826.7,2210.6,186.7,80.8,8.1
0.117250,561.9,31.3,1986.2,751.4,2227.4,156.0,661,1828.5,2213.1,186.8,81.1,8.1
0.119250,553.9,25.2,1997.9,941.0,2227.6,132.8,660.3,1830.2,2215.7,187,81.4,8
0.121250,548.8,22.1,2048.1,1235.1,2226.3,115.0,659.5,1831.9,2218.4,187.2,81.7,7.8
0.123250,545.2,20.3,2096.0,1564.6,2226.2,99.3,658.7,1833.6,2221,187.3,81.8,7.7
0.125250,542.8,19.7,2084.1,1702.1,2226.2,92.9,657.9,1835.3,2223.6,187.5,81.8,7.4
0.127250,540.7,20.1,2021.8,1670.8,2224.8,93.7,657.1,1837,2226.3,187.7,81.6,7.1
0.129250,539.1,21.9,1952.8,1600.8,2221.4,99.3,656.3,1838.7,2229,187.9,81.2,6.7
0.131250,539.5,25.1,1929.1,1599.4,2215.2,109.7,655.5,1840.4,2231.7,188,80.5,6.3
0.133250,543.6,31.2,2013.0,1785.5,2202.3,128.0,654.7,1842.1,2234.4,188.2,79.7,5.9
0.135250,551.5,40.5,2182.5,142.7,2401.3,2020.9,653.9,1843.7,2237.1,188.4,78.8,5.6
0.137250,560.5,51.3,2170.1,139.6,2711.9,1615.4,653.1,1845.4,2239.8,188.6,78.1,5.3
0.139250,563.0,59.5,2184.6,121.6,2694.9,1478.3,652.2,1847,2242.5,188.8,77.7,4.9
0.141250,554.9,62.7,2208.9,98.6,2577.7,1579.2,651.4,1848.6,2245.2,188.9,77.8,4.6
0.143250,540.8,61.4,2227.1,81.2,2473.9,1624.9,650.6,1850.2,2247.9,189.1,78.2,4.5
0.145250,528.5,58.1,2240.2,70.8,2427.1,1598.2,649.7,1851.8,2250.6,189.3,78.9,4.7
0.147250,519.3,55.1,2252.2,61.6,2429.7,1571.9,648.9,1853.3,2253.2,189.5,79.5,5.3
0.149250,513.2,53.1,2263.6,52.3,2483.4,1556.9,648.1,1854.9,2255.9,189.7,80.1,6.2
0.151250,511.0,53.0,2273.1,43.9,2582.7,1514.2,647.2,1856.3,2258.6,189.9,80.5,7.3
0.153250,511.6,55.2,2281.8,36.2,2713.0,1407.9,646.4,1857.8,2261.3,190.1,80.8,8.4
0.155250,513.9,59.3,2288.5,30.6,2833.6,1289.2,645.6,1859.2,2263.9,190.3,81,9.4
0.157250,516.8,65.0,2293.2,27.9,2947.4,1208.1,644.7,1860.6,2266.5,190.6,81.1,10.5
0.159250,519.6,71.9,2295.0,29.0,2902.6,334.2,643.9,1862,2269.1,190.8,81.1,11.7
0.161250,521.8,78.1,2294.0,33.8,2833.9,370.6,643.1,1863.3,2271.7,191,81.2,12.8
0.163250,523.8,82.3,2291.8,41.5,2777.4,390.7,642.2,1864.5,2274.3,191.2,81.2,13.7
0.165250,524.5,84.2,2290.7,49.7,2750.0,413.4,641.4,1865.8,2276.8,191.4,81.3,14.4
0.167250,524.1,85.8,2292.1,56.5,2750.5,438.0,640.6,1867,2279.3,191.6,81.3,14.5
0.169250,523.1,87.6,2295.9,59.5,2781.7,426.7,639.8,1868.1,2281.8,191.8,81.3,14.2
0.171250,522.6,88.2,2300.0,58.0,2809.3,372.0,638.9,1869.2,2284.3,192,81.3,13.8
0.173250,523.7,86.5,2303.2,55.4,2822.9,329.3,638.1,1870.3,2286.7,192.3,81.3,13.4
0.175250,527.6,82.9,2305.2,55.2,2824.2,322.4,637.3,1871.2,2289.1,192.5,81.3,13.4
0.177250,534.0,78.0,2306.3,58.4,2810.1,347.2,636.5,1872.2,2291.4,192.7,81.4,13.9
0.179250,541.1,71.7,2306.9,64.9,2778.2,385.7,635.7,1873.1,2293.8,192.9,81.5,14.8
0.181250,546.2,65.5,2308.0,71.8,2748.0,410.5,635,1873.9,2296,193.1,81.6,15.7
0.183250,549.7,59.3,2310.9,77.2,2734.9,425.1,634.2,1874.7,2298.3,193.3,81.8,16.5
0.185250,552.2,53.6,2314.7,79.1,2736.5,427.4,633.4,1875.4,2300.5,193.5,82.1,16.7
0.187250,554.9,48.3,2316.3,78.9,2737.5,419.4,632.7,1876.1,2302.6,193.7,82.3,16.3
0.189250,558.2,43.6,2314.6,78.0,2738.6,416.9,631.9,1876.7,2304.7,193.9,82.5,15.4
0.191250,561.6,40.7,2312.0,77.2,2750.8,440.0,631.2,1877.2,2306.8,194.1,82.6,14.3
0.193250,565.4,39.3,2311.1,76.5,2774.7,496.7,630.4,1877.7,2308.8,194.3,82.8,13.3
0.195250,569.4,38.8,2312.6,75.1,2795.9,561.5,629.7,1878.1,2310.7,194.6,82.9,12.5
0.197250,573.8,38.5,2315.6,71.8,2808.0,595.5,629,1878.5,2312.6,194.8,82.9,12.2
0.199250,579.2,37.4,2319.2,66.7,2812.2,566.7,628.3,1878.7,2314.5,195,83,12.1
0.201250,584.6,35.3,2321.6,62.2,2804.4,513.8,627.6,1879,2316.3,195.2,83.1,12.1
0.203250,589.7,32.1,2321.9,59.7,2788.0,481.8,626.9,1879.1,2318,195.5,83.2,12
0.205250,593.6,28.7,2319.6,60.1,2766.3,483.6,626.2,1879.2,2319.7,195.7,83.3,11.8
0.207250,596.9,25.7,2315.1,63.3,2738.8,504.2,625.6,1879.2,2321.3,196,83.4,11.4
0.209250,600.5,23.8,2308.7,69.6,2713.6,525.8,624.9,1879.1,2322.8,196.2,83.5,10.8
0.211250,604.9,24.1,2301.6,77.6,2714.2,539.7,624.3,1878.9,2324.3,196.5,83.5,10.2
0.213250,610.9,27.0,2293.8,87.0,2745.5,532.3,623.6,1878.7,2325.7,196.8,83.5,9.6
0.215250,618.3,32.2,2285.6,96.1,2771.6,492.5,623,1878.4,2327.1,197.1,83.4,9.3
0.217250,628.1,39.7,2276.0,104.3,2772.8,442.5,622.4,1878.1,2328.4,197.4,83.3,9.2
0.219250,641.1,49.9,2263.7,110.6,2753.6,381.2,621.9,1877.6,2329.6,197.7,83.1,9.3
0.221250,656.6,61.2,2248.9,111.8,2731.0,312.3,621.3,1877.1,2330.8,198.1,82.8,9.5
0.223250,328.9,4256.7,676.2,72.9,2230.2,105.7,620.7,1876.5,2331.9,198.4,82.6,9.7
0.225250,697.2,81.3,2212.0,94.0,2708.4,193.3,620.2,1875.8,2332.9,198.8,82.5,9.8
0.227250,718.1,84.7,2195.6,80.1,2709.0,159.2,619.7,1875.1,2333.8,199.2,82.4,9.9
0.229250,736.8,82.7,2181.5,66.7,2714.4,135.5,619.2,1874.2,2334.7,199.6,82.4,10.1
0.231250,241.2,3795.2,749.5,77.8,2171.7,56.9,618.7,1873.3,2335.5,200,82.4,10.1
0.233250,723.5,3356.7,758.1,72.8,2164.6,50.3,618.2,1872.3,2336.2,200.5,82.5,10.2
0.235250,764.1,69.5,945.8,2982.6,2159.3,47.9,617.7,1871.3,2336.9,200.9,82.6,10
0.237250,770.0,67.4,1087.5,2691.4,2152.7,49.5,617.3,1870.1,2337.5,201.4,82.6,9.7
0.239250,777.1,64.9,1172.3,2531.6,2141.3,55.0,616.8,1868.9,2338,201.9,82.7,9.1
0.241250,784.6,61.5,1184.9,2591.1,2123.4,61.5,616.4,1867.6,2338.4,202.4,82.7,8.5
0.243250,792.3,56.8,1082.6,2927.8,2096.1,64.2,616,1866.2,2338.7,202.9,82.7,8
0.245250,761.3,3481.7,798.7,52.3,2067.6,59.0,615.6,1864.8,2339,203.4,82.7,7.9
0.247250,803.7,48.7,2044.3,50.6,2626.4,113.7,615.3,1863.2,2339.2,203.9,82.7,8.1
0.249250,807.0,47.3,2029.2,45.4,2634.6,101.0,614.9,1861.6,2339.3,204.4,82.7,8.6
0.251250,274.7,3866.2,808.4,48.6,2021.7,46.7,614.6,1859.9,2339.3,204.9,82.6,9.2
0.253250,807.9,51.8,926.4,3438.1,2016.6,55.0,614.3,1858.1,2339.3,205.5,82.5,9.8
0.255250,805.7,56.0,1212.8,3143.6,2010.4,68.6,614,1856.3,2339.2,206,82.4,10.2
0.257250,801.8,62.2,1395.3,2952.6,1999.9,86.5,613.7,1854.4,2339,206.5,82.3,10.5
0.259250,795.1,71.8,1528.3,2848.4,1982.6,107.6,613.4,1852.4,2338.7,207,82.1,10.6
0.261250,785.4,83.9,1623.0,2788.3,1961.7,126.3,613.1,1850.3,2338.3,207.6,82,10.7
0.263250,770.9,97.9,1695.7,2631.6,1939.1,142.2,612.9,1848.2,2337.9,208.1,81.8,10.9
0.265250,754.1,109.1,1743.6,2361.8,1919.7,155.9,612.7,1845.9,2337.4,208.6,81.7,11.1
0.267250,736.7,115.6,1781.6,2037.7,1901.6,172.3,612.5,1843.6,2336.8,209.1,81.7,11.4
0.269250,719.8,116.2,1821.4,1694.6,1881.8,194.9,612.3,1841.3,2336.1,209.6,81.7,11.8
0.271250,707.0,112.2,1859.9,215.1,1868.6,1437.2,612.1,1838.8,2335.3,210.1,81.8,12.3
0.273250,698.3,106.8,1836.1,222.4,1920.2,1268.5,612,1836.3,2334.5,210.6,81.8,12.7
0.275250,694.7,103.6,1819.5,215.1,1961.2,1198.2,611.9,1833.8,2333.6,211,81.9,13
0.277250,694.8,104.1,1809.3,200.9,2007.7,1201.9,611.8,1831.1,2332.6,211.5,82,13.3
0.279250,696.9,108.4,1800.3,182.6,2110.8,1234.1,611.7,1828.4,2331.6,212,82,13.6
0.281250,699.3,114.9,1789.6,165.2,2284.5,1107.6,611.6,1825.7,2330.4,212.4,81.8,13.7
0.283250,701.0,123.4,1776.0,147.7,2351.0,516.0,611.5,1822.8,2329.2,212.9,81.6,13.7
0.285250,702.1,135.5,1762.4,129.0,2269.5,354.8,611.5,1819.9,2327.9,213.4,81.3,13.4
0.287250,704.5,158.4,1749.9,107.0,2225.7,258.1,611.4,1817,2326.5,213.8,80.8,12.5
0.289250,708.5,210.1,1740.5,86.0,2196.3,207.3,611.4,1814,2325.1,214.3,80.3,11
0.291250,713.2,310.8,1735.6,72.4,2184.7,199.6,611.4,1810.9,2323.6,214.7,79.8,9.5
0.293250,719.2,473.8,1732.2,62.3,2191.3,226.0,611.4,1807.8,2322,215.2,79.4,8.2
0.295250,695.7,621.4,1727.5,52.8,2215.8,276.6,611.5,1804.6,2320.3,215.7,79.1,7.8
0.297250,615.7,699.9,1722.6,41.8,2257.3,340.4,611.5,1801.4,2318.6,216.1,78.8,8.4
0.299250,502.5,682.5,1720.4,32.1,2315.2,417.0,611.6,1798.1,2316.8,216.6,78.7,9.9
0.301250,406.5,581.4,1722.3,27.6,2377.9,516.1,611.6,1794.8,2314.9,217.1,78.6,11.6
0.303250,364.5,466.0,1727.1,29.5,2435.9,700.1,611.7,1791.4,2313,217.5,78.6,13.1
0.305250,358.7,430.4,1733.0,37.2,2389.3,1025.4,611.8,1788,2311,218,78.6,13.9
0.307250,369.5,449.3,1739.0,45.4,2262.3,1113.9,612,1784.5,2309,218.5,78.6,13.8
0.309250,403.9,485.2,1744.6,48.4,2247.5,1064.9,612.1,1781,2306.8,218.9,78.8,13.2
0.311250,470.3,475.6,1748.6,47.4,2234.5,816.8,612.2,1777.5,2304.6,219.4,79,12.2
0.313250,552.9,377.3,1751.3,48.4,2164.9,540.2,612.4,1773.9,2302.4,219.8,79.4,11.2
0.315250,606.5,258.0,1752.3,53.1,2113.4,356.9,612.6,1770.3,2300.1,220.2,79.9,10.4
0.317250,637.8,167.5,1751.9,61.8,2081.9,247.5,612.8,1766.7,2297.7,220.6,80.4,9.5
0.319250,656.6,107.4,1749.9,77.3,2064.0,182.2,613,1763,2295.3,221,81,8.5
0.321250,667.0,73.9,1745.1,100.2,2055.9,143.2,613.2,1759.3,2292.8,221.4,81.6,7.6
0.323250,674.0,54.1,1734.8,129.4,2053.7,113.6,613.4,1755.6,2290.3,221.7,82.2,7
0.325250,679.0,43.9,1722.1,151.1,2056.5,96.5,613.6,1751.9,2287.7,222,82.8,7
0.327250,683.0,38.2,1712.5,160.5,2063.3,92.9,613.9,1748.1,2285.1,222.3,83.4,7.8
0.329250,686.3,34.8,1708.5,164.1,2075.9,105.3,614.1,1744.4,2282.4,222.5,83.8,9.2
0.331250,688.4,32.8,1708.4,169.6,2095.9,132.2,614.4,1740.6,2279.7,222.7,84.2,10.9
0.333250,689.9,31.7,1707.5,175.5,2126.5,165.0,614.7,1736.8,2276.9,222.9,84.5,12.6
0.335250,691.3,31.7,1702.5,176.7,2159.9,180.6,615,1733,2274.1,223,84.7,13.8
0.337250,693.1,32.7,1694.0,172.1,2188.4,177.3,615.3,1729.2,2271.3,223.1,84.8,14.5
0.339250,695.5,34.5,1686.0,164.5,2207.9,171.8,615.6,1725.3,2268.4,223.2,84.9,15
0.341250,698.2,36.8,1681.9,161.5,2218.2,182.7,615.9,1721.5,2265.4,223.2,84.9,15.3
0.343250,701.1,39.8,1681.1,168.9,2226.3,224.2,616.2,1717.7,2262.5,223.2,84.9,15.5
0.345250,703.4,43.0,1684.0,187.0,2241.3,302.3,616.6,1713.9,2259.5,223.2,84.8,15.8
0.347250,705.1,46.5,1691.4,211.5,2284.8,418.4,616.9,1710.1,2256.4,223.1,84.7,16.1
0.349250,706.6,50.3,1700.1,233.4,2249.4,2444.3,617.3,1706.3,2253.4,223,84.6,16.3
0.351250,708.4,54.2,1700.4,248.7,2039.8,2243.7,617.6,1702.5,2250.3,222.9,84.6,16.5
0.353250,710.6,58.4,1688.2,265.4,2002.0,2320.5,618,1698.8,2247.2,222.7,84.5,16.7
0.355250,712.4,62.1,1666.9,280.8,2034.7,2495.2,618.3,1695,2244.1,222.5,84.4,16.9
0.357250,713.4,64.7,1641.9,291.5,2083.2,2714.6,618.7,1691.3,2240.9,222.3,84.4,17.3
0.359250,713.4,66.3,1618.9,298.6,2116.6,2936.1,619.1,1687.6,2237.7,222.1,84.4,17.7
0.361250,712.3,66.8,1603.5,306.1,2115.1,3033.5,619.5,1684,2234.5,221.8,84.4,18.2
0.363250,709.9,66.0,1594.4,319.5,2079.0,2908.9,619.8,1680.3,2231.3,221.5,84.5,18.5
0.365250,706.6,64.1,1590.6,338.6,2029.6,2626.9,620.2,1676.7,2228.1,221.3,84.5,18.6
0.367250,702.2,61.2,1589.1,359.1,1986.8,2343.3,620.6,1673.1,2224.9,221,84.6,18.3
0.369250,696.4,57.1,1587.7,370.3,1960.2,2164.2,621,1669.6,2221.7,220.7,84.7,17.8
0.371250,690.1,52.6,1585.1,360.2,1952.4,2137.4,621.4,1666.1,2218.4,220.4,84.8,17.2
0.373250,683.2,47.7,1580.2,328.7,1953.9,2219.5,621.8,1662.7,2215.2,220.1,84.8,16.6
0.375250,676.5,43.4,1573.9,289.5,1957.2,2322.6,622.2,1659.2,2211.9,219.8,84.7,16.2
0.377250,669.5,39.7,1566.2,249.7,1971.2,2405.8,622.6,1655.9,2208.7,219.5,84.6,15.9
0.379250,662.1,36.1,1556.8,211.5,2008.7,2457.1,623,1652.6,2205.5,219.2,84.5,15.6
0.381250,655.7,33.2,1546.6,182.6,2041.0,2393.2,623.4,1649.4,2202.2,218.9,84.2,15.4
0.383250,650.5,30.9,1535.3,161.2,2049.4,2228.0,623.8,1646.2,2199,218.7,83.9,15.2
0.385250,647.0,30.3,1526.0,147.7,2044.9,2102.5,624.2,1643,2195.8,218.4,83.5,15.1
0.387250,644.1,31.7,1520.4,139.6,2039.1,2071.1,624.6,1640,2192.6,218.1,83.1,14.8
0.389250,641.2,35.7,1519.1,138.1,2034.2,2140.6,625,1637,2189.4,217.9,82.6,14.6
0.391250,638.4,41.7,1519.9,144.7,2029.2,2251.4,625.4,1634,2186.3,217.6,82,14.4
0.393250,635.1,48.9,1517.8,157.2,2036.5,2318.8,625.8,1631.2,2183.1,217.4,81.5,14.2
0.395250,630.9,54.4,1509.2,162.8,2070.5,2266.6,626.2,1628.4,2180,217.2,81,14.2
0.397250,625.5,57.4,1499.7,149.7,2104.4,2117.2,626.5,1625.7,2176.9,217,80.5,14.2
0.399250,619.7,58.7,1498.4,123.1,2112.5,1946.7,626.9,1623.1,2173.9,216.8,80.2,14.3
0.401250,615.2,60.2,1504.4,102.1,2113.7,1824.3,627.3,1620.5,2170.8,216.6,80,14.5
0.403250,611.9,62.7,1513.1,92.0,2124.1,1717.4,627.7,1618.1,2167.8,216.4,79.9,14.7
0.405250,609.8,65.7,1522.2,92.5,2159.2,1666.3,628,1615.7,2164.8,216.2,79.8,14.8
0.407250,608.3,68.8,1532.3,98.8,2232.2,1737.7,628.4,1613.4,2161.9,216.1,79.8,14.9
0.409250,606.6,71.6,1543.0,109.4,2323.8,1965.2,628.7,1611.2,2159,215.9,79.8,15
0.411250,604.2,73.8,1551.6,122.6,2394.1,237.0,629,1609.1,2156.1,215.8,79.8,15
0.413250,600.3,76.3,1557.5,140.0,2374.1,207.7,629.4,1607.1,2153.3,215.7,79.8,15
0.415250,595.4,79.3,1562.3,159.2,2356.3,197.4,629.7,1605.2,2150.6,215.6,79.8,14.9
0.417250,589.8,83.8,1571.7,178.5,2335.2,200.5,630,1603.4,2147.8,215.5,79.7,14.6
0.419250,583.0,90.0,1588.7,193.5,2309.2,211.7,630.3,1601.7,2145.2,215.4,79.6,14.2
0.421250,575.1,96.8,1607.6,197.7,2281.9,227.7,630.6,1600.1,2142.6,215.3,79.5,13.7
0.423250,565.1,104.1,1623.4,192.0,2246.6,258.6,630.9,1598.6,2140,215.2,79.3,13.1
0.425250,553.5,110.7,1629.6,185.8,2195.9,314.6,631.2,1597.3,2137.5,215.2,79.1,12.5
0.427250,538.1,116.3,1626.9,188.3,2116.9,394.3,631.4,1596,2135,215.2,78.9,11.4
0.429250,515.2,118.4,1621.1,200.2,2007.1,482.5,631.7,1594.8,2132.6,215.1,79,10.1
0.431250,489.1,111.3,1625.2,203.0,1896.8,574.2,631.9,1593.8,2130.3,215.1,79.2,8.8
0.433250,466.4,93.5,1642.8,169.8,1792.6,712.2,632.2,1592.9,2128,215.1,79.5,7.8
0.435250,453.6,76.0,1659.5,128.2,1719.3,819.8,632.4,1592.1,2125.8,215.1,80,7.4
0.437250,446.7,62.4,1673.0,838.6,1679.5,102.1,632.6,1591.4,2123.7,215.1,80.5,7.8
0.439250,442.9,51.8,1655.5,813.0,1700.7,84.8,632.8,1590.9,2121.6,215.2,81,9
0.441250,441.2,43.8,1660.8,792.2,1717.0,74.8,633,1590.4,2119.6,215.2,81.3,10.4
0.443250,440.4,37.1,1677.4,807.4,1729.9,68.1,633.1,1590.1,2117.7,215.2,81.5,11.8
0.445250,439.7,32.7,1702.6,904.7,1738.3,61.8,633.3,1589.9,2115.9,215.2,81.6,12.8
0.447250,438.6,30.5,1742.9,54.4,1756.7,1158.2,633.4,1589.9,2114.1,215.3,81.5,13.4
0.449250,437.2,30.0,1744.7,48.2,1934.9,1771.0,633.5,1589.9,2112.4,215.3,81.4,13.8
0.451250,435.9,30.2,1745.7,47.9,2576.2,3591.8,633.6,1590.2,2110.8,215.3,81.2,14
0.453250,434.8,30.1,1747.9,53.9,2687.6,462.6,633.7,1590.5,2109.3,215.3,81,14.3
0.455250,434.3,29.7,1750.6,61.4,2664.9,371.0,633.8,1591,2107.8,215.4,80.8,14.8
0.457250,434.0,28.4,1751.1,69.1,2660.4,314.8,633.8,1591.6,2106.5,215.4,80.5,15.5
0.459250,432.9,26.0,1746.5,80.8,2658.2,297.1,633.9,1592.3,2105.2,215.4,80.3,16.5
0.461250,430.7,23.3,1737.1,95.3,2653.8,314.1,633.9,1593.2,2104,215.3,80,17.4
0.463250,428.0,20.8,1725.4,105.9,2646.7,347.7,633.9,1594.2,2102.9,215.3,79.8,18
0.465250,426.1,19.3,1718.7,105.8,2645.4,375.6,633.9,1595.3,2101.9,215.3,79.5,18
0.467250,425.6,18.9,1717.8,99.7,2656.4,403.0,633.9,1596.6,2101,215.2,79.4,17.3
0.469250,427.9,20.6,1721.2,96.0,2681.0,453.0,633.8,1598,2100.1,215.1,79.3,16
0.471250,436.2,26.7,1730.2,101.2,2718.3,578.4,633.8,1599.6,2099.4,215,79.4,14.4
0.473250,455.9,38.5,1746.4,111.1,2711.1,960.2,633.7,1601.3,2098.8,214.9,79.8,12.6
0.475250,482.6,50.6,1761.9,115.7,2560.2,1396.1,633.6,1603.1,2098.2,214.8,80.3,10.8
0.477250,511.0,61.5,1775.9,112.0,2377.0,1822.9,633.5,1605.1,2097.8,214.6,81.1,8.7
0.479250,541.9,72.8,1790.4,100.5,2183.8,2401.1,633.4,1607.2,2097.4,214.4,81.9,6.1
0.481250,573.5,78.4,1805.1,91.1,1971.9,2873.1,633.2,1609.5,2097.2,214.2,82.7,3.6
0.483250,605.4,72.3,1822.0,90.0,1833.0,2763.7,633,1611.9,2097,214,83.4,1.6
0.485250,629.0,58.3,1835.7,2243.9,1836.9,98.1,632.8,1614.4,2097,213.8,84.1,0.6
0.487250,645.4,44.7,1847.3,113.2,1876.6,1766.9,632.6,1617.1,2097,213.5,84.6,1
0.489250,657.1,36.1,1853.7,128.6,1910.2,1503.2,632.4,1619.9,2097.2,213.3,85,2.4
0.491250,665.4,33.7,1859.8,132.7,1910.9,1511.6,632.1,1622.9,2097.5,213,85.3,4.3
0.493250,673.0,35.7,1840.3,1729.7,1868.9,125.2,631.9,1626,2097.8,212.7,85.5,6.3
0.495250,680.2,40.2,1697.6,1973.9,1877.7,114.1,631.6,1629.2,2098.3,212.4,85.5,7.8
0.497250,687.5,45.7,1543.0,2125.1,1883.7,103.9,631.3,1632.6,2098.8,212.1,85.5,8.8
0.499250,694.4,51.5,1430.6,2150.5,1885.5,94.3,631,1636.1,2099.5,211.7,85.4,9.7
0.501250,699.2,56.8,1382.9,2074.5,1884.5,85.8,630.6,1639.7,2100.3,211.4,85.2,10.5
0.503250,702.3,62.0,1370.5,1954.1,1882.9,78.7,630.2,1643.5,2101.2,211,85.1,11.3
0.505250,704.8,66.9,1368.5,1862.0,1881.2,74.9,629.9,1647.4,2102.2,210.6,85,12.3
0.507250,708.6,72.0,1360.8,1827.2,1878.5,74.0,629.5,1651.4,2103.2,210.3,84.9,13.7
0.509250,715.2,76.6,1342.2,1855.2,1874.5,75.5,629,1655.6,2104.4,209.9,84.8,15.4
0.511250,723.2,79.1,1323.0,1951.0,1870.0,78.9,628.6,1659.9,2105.7,209.5,84.8,17.1
0.513250,732.4,79.1,1324.0,2175.6,1865.9,85.5,628.1,1664.3,2107.1,209.1,84.7,18.5
0.515250,740.6,77.3,1379.1,2565.3,1863.3,94.8,627.6,1668.9,2108.6,208.7,84.6,19.1
0.517250,747.3,75.1,1506.9,3024.2,1862.6,105.1,627.1,1673.6,2110.3,208.3,84.4,18.8
