time,f1,b1,f2,b2,f3,b3,f1p,f2p,f3p,f0,intensity,harmonicity
0.025594,211.3,37.7,1436.3,511.5,2948.1,1097.2,401.4,1112.9,2014.3,175,66.6,-200
0.027594,220.2,58.6,1415.5,344.6,2924.0,1291.3,401.5,1113.2,2014.6,174.5,67.5,-200
0.029594,233.1,83.7,1407.4,292.2,2776.9,1830.5,401.6,1113.8,2015.1,174,68,-203.4
0.031594,248.5,100.7,1408.2,294.2,2401.6,2330.2,401.7,1114.5,2015.7,173.4,68.3,-210.2
0.033594,266.0,104.2,1402.5,313.1,2047.0,1991.4,401.9,1115.5,2016.5,172.9,68.3,-215.2
0.035594,284.7,100.5,1376.1,321.9,2005.8,1323.0,402.1,1116.7,2017.5,172.3,68.2,-213.5
0.037594,303.2,95.6,1341.4,303.4,2039.5,851.7,402.3,1118.1,2018.7,171.8,67.9,-200
0.039594,318.6,90.5,1313.7,283.5,2056.9,578.7,402.6,1119.7,2020,171.2,67.6,-168
0.041594,327.8,85.5,1294.0,274.3,2059.6,436.3,403,1121.5,2021.5,170.7,67.5,-120.9
0.043594,331.2,83.0,1286.4,266.7,2060.3,369.2,403.3,1123.5,2023.2,170.2,67.5,-68.6
0.045594,331.5,84.2,1292.8,255.4,2064.9,347.2,403.8,1125.8,2025.1,169.7,67.7,-21.1
0.047594,330.8,88.2,1307.5,239.6,2073.0,350.2,404.2,1128.2,2027.2,169.2,68,11.6
0.049594,329.3,92.3,1321.0,228.7,2076.8,362.6,404.7,1130.9,2029.4,168.7,68.4,26.6
0.051594,326.0,92.8,1328.1,237.5,2064.7,370.9,405.2,1133.7,2031.8,168.3,68.9,30.3
0.053594,321.7,89.9,1330.4,261.5,2040.1,359.1,405.8,1136.8,2034.4,167.9,69.3,27.5
0.055594,318.0,87.1,1333.0,283.8,2020.3,334.5,406.4,1140.1,2037.1,167.5,69.6,22.9
0.057594,315.4,85.2,1335.6,300.0,2010.0,319.3,407,1143.6,2040,167.2,69.9,21.1
0.059594,314.1,83.4,1336.8,311.9,2005.6,318.8,407.7,1147.3,2043.1,166.8,70,22.1
0.061594,314.4,80.9,1336.5,318.8,2007.1,326.3,408.4,1151.2,2046.4,166.5,70.2,22.6
0.063594,315.5,77.0,1331.9,321.6,2014.3,330.8,409.1,1155.2,2049.8,166.2,70.2,22.9
0.065594,316.4,72.1,1318.9,323.7,2022.5,326.3,409.9,1159.5,2053.4,166,70.2,23.1
0.067594,317.0,67.3,1298.2,323.6,2027.3,313.8,410.7,1164,2057.1,165.8,70.2,23.4
0.069594,317.1,63.0,1274.8,314.7,2028.9,296.1,411.6,1168.7,2061,165.5,70.2,23.7
0.071594,317.1,59.1,1255.6,295.9,2031.7,276.1,412.5,1173.6,2065.1,165.4,70.2,23.9
0.073594,317.5,55.4,1243.6,274.3,2038.0,254.0,413.4,1178.6,2069.3,165.2,70.2,24.1
0.075594,318.6,52.2,1237.3,257.9,2045.7,229.8,414.4,1183.9,2073.7,165,70.2,24.3
0.077594,320.5,50.1,1235.8,250.8,2052.0,207.7,415.4,1189.3,2078.2,164.9,70.1,24.4
0.079594,323.1,49.3,1240.2,251.8,2056.5,194.5,416.4,1194.9,2082.9,164.8,70.1,24.3
0.081594,325.7,49.3,1250.8,253.9,2062.0,192.3,417.5,1200.8,2087.8,164.7,70.1,24.1
0.083594,327.2,49.0,1263.4,247.1,2070.2,199.1,418.6,1206.7,2092.7,164.6,70.2,23.8
0.085594,327.3,47.5,1272.5,228.6,2078.1,208.7,419.7,1212.9,2097.9,164.5,70.2,23.7
0.087594,326.4,45.8,1276.7,209.9,2081.3,213.9,420.9,1219.3,2103.2,164.4,70.3,23.9
0.089594,325.0,44.9,1280.7,197.4,2080.8,212.7,422,1225.8,2108.6,164.3,70.4,24.5
0.091594,323.4,44.8,1286.7,190.0,2078.7,207.0,423.3,1232.5,2114.1,164.3,70.5,25.3
0.093594,322.0,44.9,1292.3,186.1,2075.9,202.1,424.5,1239.3,2119.8,164.2,70.6,26.3
0.095594,320.8,45.2,1296.6,185.2,2072.7,202.6,425.8,1246.3,2125.7,164.2,70.7,27.2
0.097594,320.3,45.8,1300.6,187.3,2069.1,211.9,427.1,1253.5,2131.6,164.1,70.8,27.9
0.099594,320.4,47.2,1304.8,193.5,2063.9,234.1,428.5,1260.9,2137.7,164.1,70.8,28.2
0.101594,321.4,49.7,1310.7,205.3,2056.0,278.9,429.9,1268.4,2143.9,164.1,70.9,28.4
0.103594,323.7,53.5,1321.5,222.0,2045.6,360.3,431.3,1276,2150.3,164.1,71,28.5
0.105594,326.8,58.2,1338.3,236.8,2042.4,475.9,432.7,1283.8,2156.8,164,71,28.4
0.107594,329.9,62.3,1354.9,241.2,2063.4,572.3,434.2,1291.8,2163.3,164,71,28.3
0.109594,332.9,64.5,1363.0,239.9,2093.7,601.9,435.7,1299.9,2170,164,71,27.9
0.111594,335.6,65.6,1363.2,240.4,2108.1,606.1,437.2,1308.2,2176.8,164,71,27.2
0.113594,337.6,66.5,1359.6,243.3,2107.2,629.2,438.8,1316.5,2183.8,164,71,26.4
0.115594,339.0,68.4,1357.6,246.2,2104.7,679.5,440.3,1325.1,2190.8,164,71.1,25.9
0.117594,340.2,71.6,1360.8,247.5,2113.1,744.2,441.9,1333.7,2197.9,164.1,71.1,25.7
0.119594,341.1,74.7,1367.1,246.2,2129.0,790.5,443.5,1342.5,2205.2,164.1,71.1,26
0.121594,341.9,76.1,1371.2,243.9,2129.9,797.2,445.2,1351.4,2212.5,164.1,71.1,26.8
0.123594,342.7,75.4,1369.4,243.4,2114.0,755.1,446.9,1360.4,2219.9,164.1,71.1,27.6
0.125594,343.1,74.7,1362.8,244.4,2106.3,668.5,448.6,1369.6,2227.4,164.1,71.2,28.4
0.127594,343.5,75.2,1355.6,245.3,2110.6,576.4,450.3,1378.9,2235,164.2,71.2,28.8
0.129594,343.8,75.6,1349.5,245.6,2110.6,515.0,452,1388.2,2242.7,164.2,71.2,28.8
0.131594,343.8,74.2,1343.5,244.6,2095.5,496.0,453.8,1397.7,2250.5,164.3,71.3,28.6
0.133594,343.9,70.9,1337.9,242.1,2063.5,511.5,455.6,1407.3,2258.4,164.3,71.3,28.1
0.135594,344.5,67.9,1334.1,240.7,2023.2,546.0,457.4,1417,2266.3,164.3,71.3,27.7
0.137594,345.4,65.6,1329.0,242.0,1982.6,560.9,459.2,1426.8,2274.3,164.4,71.3,27.4
0.139594,346.6,63.3,1321.5,242.3,1953.3,527.0,461,1436.7,2282.4,164.4,71.3,27.2
0.141594,348.2,61.5,1316.2,239.3,1936.7,473.9,462.9,1446.7,2290.5,164.5,71.3,27.3
0.143594,349.8,61.2,1315.6,236.4,1921.4,435.6,464.8,1456.7,2298.7,164.5,71.2,27.2
0.145594,351.0,62.4,1316.7,235.1,1899.9,413.2,466.7,1466.9,2306.9,164.5,71.3,27
0.147594,352.3,64.6,1314.8,234.7,1874.8,396.3,468.6,1477.1,2315.2,164.6,71.3,26.3
0.149594,354.0,67.5,1308.0,235.6,1854.7,381.3,470.5,1487.4,2323.6,164.6,71.3,25.1
0.151594,357.1,71.4,1298.5,237.8,1840.7,372.2,472.4,1497.8,2332,164.6,71.4,23.6
0.153594,363.1,78.0,1291.8,242.5,1841.0,387.2,474.4,1508.2,2340.5,164.6,71.5,21.8
0.155594,374.4,90.5,1291.8,251.7,1873.1,446.4,476.4,1518.7,2348.9,164.7,71.7,19.8
0.157594,397.6,114.3,1295.5,271.5,1950.9,540.1,478.3,1529.3,2357.5,164.7,72,17.6
0.159594,441.5,150.1,1302.3,306.9,2050.3,606.3,480.3,1539.9,2366,164.7,72.4,14.8
0.161594,501.9,175.1,1315.8,340.3,2113.0,632.7,482.3,1550.6,2374.6,164.6,73,11.4
0.163594,555.7,172.1,1335.2,355.8,2131.7,661.2,484.4,1561.3,2383.2,164.6,73.6,8
0.165594,593.6,159.9,1364.5,359.0,2125.8,722.3,486.4,1572,2391.9,164.6,74.3,5.2
0.167594,624.0,149.9,1410.3,340.1,2124.0,835.5,488.4,1582.8,2400.5,164.5,74.9,3.7
0.169594,652.3,139.5,1457.4,280.1,2176.8,955.8,490.5,1593.7,2409.2,164.5,75.4,3.7
0.171594,675.5,127.2,1486.8,210.7,2295.6,984.5,492.5,1604.5,2417.9,164.4,75.9,4.9
0.173594,693.0,114.8,1508.4,152.9,2451.8,894.9,494.6,1615.4,2426.6,164.3,76.3,6.8
0.175594,703.2,107.2,1527.9,113.8,2583.6,739.5,496.6,1626.3,2435.3,164.2,76.7,8.7
0.177594,708.2,106.4,1544.8,90.5,2664.0,605.4,498.7,1637.3,2444,164.1,76.9,10.1
0.179594,710.9,112.3,1558.1,77.0,2705.5,516.1,500.8,1648.2,2452.7,164,77.1,11.1
0.181594,713.4,123.5,1568.7,68.6,2725.1,458.8,502.9,1659.2,2461.4,163.9,77.2,11.9
0.183594,716.6,139.6,1578.5,63.1,2746.5,422.9,505,1670.2,2470.1,163.7,77.2,12.6
0.185594,720.4,157.8,1587.8,61.4,2779.8,405.4,507.1,1681.1,2478.7,163.6,77.2,13.1
0.187594,726.7,175.5,1598.2,62.6,2812.6,387.2,509.1,1692.1,2487.4,163.5,77.2,13.5
0.189594,735.5,191.2,1609.7,64.1,2832.1,362.8,511.2,1703.1,2496,163.3,77.1,13.7
0.191594,744.8,200.7,1620.5,64.3,2837.4,339.4,513.3,1714,2504.6,163.2,77.1,13.6
0.193594,754.1,203.3,1629.9,63.2,2832.2,318.2,515.4,1725,2513.2,163,77.1,13.5
0.195594,763.8,201.4,1638.5,62.3,2825.7,296.0,517.5,1735.9,2521.8,162.8,77.1,13.4
0.197594,770.9,195.7,1646.0,62.7,2828.1,278.4,519.6,1746.8,2530.3,162.7,77.2,13.4
0.199594,773.8,188.0,1652.1,65.4,2839.1,268.7,521.7,1757.7,2538.8,162.5,77.3,13.7
0.201594,775.5,181.8,1657.8,69.7,2850.7,262.9,523.8,1768.5,2547.2,162.4,77.5,14.1
0.203594,779.2,177.2,1665.4,74.9,2858.8,262.4,525.9,1779.3,2555.6,162.2,77.6,14.6
0.205594,785.4,174.2,1676.0,80.2,2861.2,273.1,528,1790.1,2563.9,162.1,77.8,14.9
0.207594,792.8,171.2,1690.0,84.9,2861.4,291.7,530.1,1800.9,2572.2,161.9,78,15.1
0.209594,799.1,167.3,1703.1,87.2,2863.7,307.3,532.1,1811.6,2580.5,161.8,78.1,15
0.211594,804.6,164.4,1711.8,87.9,2869.1,313.1,534.2,1822.2,2588.7,161.6,78.3,14.7
0.213594,809.8,164.5,1716.1,88.8,2874.5,309.7,536.3,1832.8,2596.8,161.5,78.5,14.3
0.215594,813.5,166.2,1717.0,89.1,2875.1,304.3,538.3,1843.3,2604.9,161.4,78.7,13.9
0.217594,813.6,167.0,1716.0,87.6,2865.9,307.1,540.4,1853.8,2612.9,161.3,78.9,13.6
0.219594,810.5,166.2,1716.4,84.7,2842.8,324.5,542.4,1864.2,2620.8,161.2,79,13.4
0.221594,806.9,162.5,1719.4,80.9,2808.7,350.6,544.4,1874.6,2628.6,161.1,79.1,13.3
0.223594,806.2,157.6,1724.4,76.7,2779.9,370.7,546.5,1884.9,2636.4,161,79.2,13.1
0.225594,809.3,155.8,1730.2,73.3,2770.3,377.6,548.5,1895.1,2644.1,161,79.3,13
0.227594,814.0,156.3,1735.7,71.0,2774.8,374.5,550.5,1905.2,2651.7,160.9,79.3,13
0.229594,816.2,156.0,1740.3,70.3,2779.0,374.8,552.5,1915.2,2659.3,160.8,79.3,13.1
0.231594,814.1,155.1,1745.3,71.8,2778.1,391.4,554.4,1925.2,2666.7,160.8,79.3,13.2
0.233594,808.9,154.0,1750.6,74.3,2779.3,420.0,556.4,1935.1,2674,160.8,79.3,13.4
0.235594,803.4,152.3,1754.9,73.7,2785.4,431.5,558.3,1944.9,2681.3,160.7,79.3,13.6
0.237594,798.5,150.3,1758.6,68.2,2785.7,412.6,560.3,1954.6,2688.5,160.7,79.3,13.8
0.239594,794.6,147.3,1761.7,62.1,2781.1,386.4,562.2,1964.2,2695.5,160.7,79.4,14
0.241594,791.7,142.8,1764.6,58.1,2775.4,368.6,564.1,1973.6,2702.5,160.7,79.4,14.2
0.243594,790.7,139.4,1768.5,56.9,2765.6,358.7,566,1983,2709.4,160.8,79.5,14.4
0.245594,791.7,139.1,1774.4,57.7,2753.0,347.0,567.8,1992.3,2716.1,160.8,79.6,14.6
0.247594,793.9,141.4,1782.4,59.4,2745.4,326.2,569.7,2001.5,2722.8,160.8,79.6,14.7
0.249594,796.0,144.9,1792.3,61.6,2746.4,298.7,571.5,2010.5,2729.3,160.9,79.7,14.6
0.251594,797.6,147.6,1804.8,63.7,2753.0,271.3,573.3,2019.5,2735.7,160.9,79.7,14.5
0.253594,798.6,145.5,1820.6,64.8,2759.9,245.2,575.1,2028.3,2742,161,79.7,14.2
0.255594,798.2,138.3,1837.1,64.7,2758.6,222.7,576.9,2037,2748.2,161.1,79.8,14.1
0.257594,797.1,129.2,1853.3,64.2,2747.3,202.6,578.7,2045.5,2754.3,161.1,79.9,13.9
0.259594,796.9,119.5,1868.7,62.7,2732.3,184.0,580.4,2054,2760.2,161.2,80,14
0.261594,797.2,109.6,1884.2,60.3,2718.7,169.4,582.1,2062.3,2766,161.3,80,14.1
0.263594,796.8,100.9,1901.4,58.7,2706.5,160.2,583.8,2070.5,2771.7,161.4,80.1,14.2
0.265594,795.0,93.8,1919.8,58.5,2695.0,154.7,585.5,2078.5,2777.3,161.6,80.1,14.2
0.267594,791.3,88.5,1936.9,60.1,2683.0,152.9,587.1,2086.4,2782.7,161.7,80.2,14.1
0.269594,785.1,84.8,1953.0,64.1,2667.8,155.7,588.8,2094.2,2788,161.8,80.2,13.7
0.271594,777.2,80.8,1970.7,69.7,2651.4,161.5,590.4,2101.8,2793.2,161.9,80.2,13
0.273594,769.9,76.1,1990.1,75.1,2641.7,169.2,591.9,2109.3,2798.2,162.1,80.3,12.3
0.275594,762.3,71.8,2014.8,79.6,2641.5,182.2,593.5,2116.6,2803.1,162.2,80.4,11.7
0.277594,754.3,68.2,2045.1,79.9,2652.3,200.7,595,2123.8,2807.9,162.4,80.5,11.3
0.279594,747.4,65.5,2074.6,72.7,2673.7,218.5,596.5,2130.8,2812.5,162.5,80.6,11.1
0.281594,741.4,64.6,2097.0,61.4,2699.1,229.2,598,2137.7,2817,162.7,80.7,11.2
0.283594,734.5,64.6,2111.6,51.8,2717.6,232.2,599.5,2144.4,2821.3,162.8,80.9,11.4
0.285594,725.7,64.1,2121.0,47.1,2721.9,235.4,600.9,2151,2825.5,163,81,11.5
0.287594,715.2,62.9,2128.4,47.8,2713.2,246.5,602.3,2157.4,2829.6,163.2,81.2,11.5
0.289594,703.2,60.7,2135.7,51.6,2699.1,263.9,603.6,2163.6,2833.5,163.3,81.4,11.4
0.291594,691.0,56.4,2144.3,55.4,2690.9,277.9,605,2169.7,2837.2,163.5,81.6,11.3
0.293594,679.4,50.5,2154.8,57.4,2695.1,283.6,606.3,2175.6,2840.9,163.7,81.9,11
0.295594,669.0,44.2,2166.6,58.9,2707.2,288.0,607.6,2181.3,2844.3,163.9,82.1,10.7
0.297594,660.6,38.5,2177.3,61.5,2718.0,302.1,608.8,2186.9,2847.6,164.1,82.4,10.2
0.299594,653.7,34.6,2186.1,66.4,2723.8,331.3,610,2192.3,2850.8,164.3,82.6,9.5
0.301594,647.6,32.6,2193.3,71.8,2728.1,367.9,611.2,2197.5,2853.8,164.5,82.7,8.6
0.303594,642.6,32.0,2198.4,73.7,2737.2,397.1,612.4,2202.6,2856.7,164.7,82.6,7.5
0.305594,638.7,33.0,2199.9,71.8,2755.1,414.3,613.5,2207.5,2859.4,164.9,82.5,6.6
0.307594,634.6,36.4,2198.0,69.4,2785.6,420.7,614.6,2212.2,2862,165.1,82.1,5.8
0.309594,628.0,42.8,2194.9,67.2,2830.1,398.9,615.7,2216.8,2864.4,165.4,81.7,5.4
0.311594,617.5,52.0,2191.8,64.1,2874.0,339.9,616.8,2221.1,2866.6,165.6,81,5.1
0.313594,603.5,63.6,2187.9,61.1,2904.3,276.0,617.8,2225.3,2868.7,165.9,80.2,4.9
0.315594,589.5,74.9,2182.3,60.2,2921.1,232.1,618.7,2229.3,2870.7,166.2,79.2,4.7
0.317594,577.5,85.6,2173.5,62.0,2928.9,206.9,619.7,2233.2,2872.5,166.5,78,4.4
0.319594,569.6,99.3,2160.2,68.3,2929.4,199.5,620.6,2236.8,2874.1,166.9,76.6,3.9
0.321594,566.3,127.4,2142.3,82.2,2924.1,205.7,621.5,2240.3,2875.6,167.2,75.1,3.3
0.323594,571.2,188.0,2126.4,107.1,2913.0,225.6,622.3,2243.6,2876.9,167.6,73.5,2.8
0.325594,588.8,282.4,2129.1,138.2,2898.5,273.3,623.1,2246.7,2878.1,168,72.2,2.5
0.327594,605.5,356.5,2158.9,147.6,2895.7,335.3,623.9,2249.7,2879.2,168.4,71.5,2.7
0.329594,595.6,370.4,2196.0,124.9,2915.8,327.0,624.7,2252.4,2880,168.8,71.5,3.6
0.331594,565.9,339.6,2227.9,97.9,2932.2,264.0,625.4,2255,2880.8,169.3,72.2,5
0.333594,535.3,289.7,2256.3,78.1,2940.4,209.6,626.1,2257.4,2881.4,169.8,73.2,6.7
0.335594,510.9,238.9,2281.7,64.3,2945.7,174.9,626.7,2259.6,2881.8,170.3,74.2,8.2
0.337594,492.5,195.2,2303.1,54.5,2948.5,154.7,627.3,2261.7,2882.1,170.8,75.1,9
0.339594,478.3,160.4,2320.9,47.7,2946.9,146.3,627.9,2263.5,2882.2,171.3,76,9.1
0.341594,467.9,136.3,2336.1,44.3,2939.1,150.5,628.5,2265.2,2882.2,171.8,76.6,8.5
0.343594,459.2,117.4,2353.2,43.9,2925.6,169.1,629,2266.7,2882,172.4,77.2,7.8
0.345594,450.5,101.3,2374.1,45.8,2913.8,207.2,629.5,2268,2881.7,172.9,77.7,7.1
0.347594,441.3,89.8,2397.0,46.7,2918.7,257.4,629.9,2269.1,2881.2,173.5,78.1,6.9
0.349594,433.5,85.5,2417.8,43.1,2943.9,282.4,630.3,2270.1,2880.6,174.1,78.5,7.2
0.351594,429.7,88.3,2434.4,36.9,2972.1,270.5,630.7,2270.9,2879.9,174.7,78.7,7.9
0.353594,430.7,95.5,2447.5,31.0,2991.8,244.2,631,2271.5,2879,175.3,79,8.8
0.355594,432.7,101.7,2457.5,26.6,3001.7,221.8,631.4,2271.9,2878,175.9,79.1,9.7
0.357594,431.2,101.5,2464.5,24.4,3005.3,211.8,631.6,2272.2,2876.8,176.5,79.2,10.4
0.359594,426.2,95.5,2470.0,23.9,3007.9,213.1,631.9,2272.2,2875.5,177.2,79.3,11
0.361594,420.9,88.4,2475.3,25.3,3011.3,220.9,632.1,2272.1,2874.1,177.8,79.3,11.6
0.363594,415.3,81.6,2481.3,30.1,3011.2,233.6,632.3,2271.9,2872.5,178.4,79.3,12.1
0.365594,406.8,72.5,2487.8,41.2,3001.9,253.7,632.4,2271.4,2870.8,179.1,79.2,12.6
0.367594,397.3,61.2,2495.9,61.0,2984.1,282.9,632.5,2270.8,2869,179.7,79.2,12.9
0.369594,391.1,51.6,2508.1,88.7,2963.7,325.9,632.6,2270,2867,180.4,79.1,13.1
0.371594,388.5,45.1,2524.6,120.7,2942.7,391.1,632.6,2269.1,2864.9,181.1,79.1,13.1
0.373594,387.5,40.2,2534.7,150.2,2917.1,457.4,632.6,2268,2862.7,181.7,79.1,13
0.375594,386.4,35.1,2522.1,166.1,2894.2,455.3,632.6,2266.7,2860.3,182.4,79.1,13
0.377594,385.9,30.6,2504.2,162.3,2885.4,412.0,632.5,2265.3,2857.8,183.1,79.1,13.1
0.379594,386.5,27.4,2502.5,155.7,2881.1,390.6,632.4,2263.7,2855.3,183.8,79.2,13.3
0.381594,387.4,25.3,2518.7,152.6,2882.1,405.3,632.3,2261.9,2852.5,184.4,79.3,13.7
0.383594,387.2,23.6,2541.2,145.7,2895.3,434.9,632.1,2260,2849.7,185.1,79.4,14
0.385594,385.7,21.1,2559.4,136.0,2919.0,453.2,631.9,2257.9,2846.8,185.8,79.5,14.4
0.387594,383.7,17.9,2569.7,132.2,2937.5,457.9,631.7,2255.7,2843.7,186.5,79.7,14.6
0.389594,382.1,14.9,2573.5,139.7,2934.6,471.6,631.5,2253.3,2840.6,187.1,79.8,14.6
0.391594,381.6,12.8,2572.1,161.8,2896.4,505.3,631.2,2250.8,2837.3,187.8,79.9,14.5
0.393594,381.8,11.5,2570.9,202.1,2816.8,529.6,630.9,2248.1,2833.9,188.4,80.1,14.3
0.395594,382.3,10.7,2587.6,281.4,2698.8,484.9,630.5,2245.3,2830.4,189,80.3,14.3
0.397594,382.9,10.1,2516.9,545.7,2667.9,223.3,630.1,2242.3,2826.8,189.6,80.5,14.5
0.399594,384.0,9.9,2413.5,605.1,2677.7,150.7,629.7,2239.2,2823.2,190.2,80.6,15.2
0.401594,385.9,10.0,2332.8,631.5,2683.0,112.2,629.2,2235.9,2819.4,190.8,80.8,16.3
0.403594,388.4,10.6,2281.3,655.6,2688.4,93.0,628.8,2232.5,2815.5,191.4,80.9,17.4
0.405594,391.0,11.6,2268.6,689.0,2694.1,87.9,628.3,2229,2811.6,191.9,81.1,18.4
0.407594,393.1,12.8,2296.5,725.0,2699.6,94.2,627.7,2225.4,2807.5,192.4,81.3,18.9
0.409594,394.8,13.9,2345.8,746.3,2704.1,106.4,627.2,2221.6,2803.4,192.9,81.4,18.9
0.411594,396.4,14.9,2386.2,743.3,2707.5,116.4,626.6,2217.7,2799.2,193.4,81.6,18.6
0.413594,398.1,15.4,2401.8,715.6,2710.8,120.4,625.9,2213.6,2794.9,193.9,81.7,18.1
0.415594,400.3,15.9,2403.1,657.3,2714.0,122.2,625.3,2209.5,2790.5,194.3,81.8,17.4
0.417594,403.0,17.1,2408.4,559.6,2716.6,127.7,624.6,2205.2,2786.1,194.7,81.9,16.8
0.419594,406.7,20.1,2419.2,435.3,2719.8,138.4,623.9,2200.8,2781.5,195.1,82,16.1
0.421594,412.0,25.6,2427.0,326.1,2723.5,149.1,623.1,2196.3,2776.9,195.5,81.9,15.2
0.423594,419.4,33.3,2433.9,260.2,2722.8,161.0,622.4,2191.7,2772.3,195.8,81.9,14.4
0.425594,428.3,41.9,2445.8,231.1,2715.3,181.2,621.6,2186.9,2767.6,196.1,81.8,13.6
0.427594,437.9,50.5,2463.1,219.7,2703.3,210.7,620.7,2182.1,2762.8,196.4,81.7,12.9
0.429594,447.9,59.4,2481.6,212.5,2691.0,245.2,619.9,2177.2,2758,196.7,81.5,12.3
0.431594,459.1,69.2,2497.8,207.8,2679.6,280.9,619,2172.1,2753.1,196.9,81.3,11.9
0.433594,472.3,79.2,2509.7,209.6,2667.0,312.1,618.1,2167,2748.1,197.2,81.1,11.5
0.435594,487.1,87.0,2515.0,224.7,2649.6,325.3,617.2,2161.8,2743.1,197.4,80.9,11.2
0.437594,502.4,90.2,2505.2,263.0,2631.5,297.0,616.2,2156.5,2738.1,197.6,80.8,11.1
0.439594,518.0,88.6,2466.2,291.2,2631.5,247.7,615.3,2151.1,2733,197.8,80.7,11.1
0.441594,534.3,83.8,2420.4,268.9,2639.9,217.5,614.3,2145.6,2727.9,197.9,80.7,11.3
0.443594,550.2,77.5,2386.3,221.0,2647.8,202.2,613.3,2140,2722.8,198.1,80.8,11.6
0.445594,565.8,69.6,2361.0,173.2,2652.3,195.0,612.2,2134.4,2717.6,198.2,81,11.8
0.447594,579.1,60.4,2339.9,143.7,2649.9,195.6,611.1,2128.7,2712.3,198.3,81.2,11.8
0.449594,590.5,50.8,2316.4,130.1,2640.1,197.7,610.1,2122.9,2707.1,198.4,81.5,11.6
0.451594,599.5,43.4,2290.6,124.2,2628.2,191.2,608.9,2117.1,2701.8,198.5,81.8,11.2
0.453594,606.8,38.6,2261.8,118.2,2619.0,175.6,607.8,2111.2,2696.5,198.6,82.2,10.7
0.455594,612.8,36.4,2232.4,108.8,2613.8,159.0,606.7,2105.2,2691.2,198.6,82.5,10.3
0.457594,618.1,36.1,2206.3,97.2,2610.9,149.9,605.5,2099.1,2685.9,198.7,82.8,9.9
0.459594,623.1,37.1,2186.2,86.8,2608.0,151.5,604.3,2093.1,2680.6,198.8,83,9.5
0.461594,627.6,39.0,2172.1,79.9,2603.6,163.2,603.1,2086.9,2675.2,198.8,83.1,9.1
0.463594,632.3,42.4,2161.1,78.2,2595.5,184.3,601.8,2080.7,2669.9,198.8,83.1,8.7
0.465594,638.0,48.4,2149.7,83.9,2580.6,214.2,600.6,2074.5,2664.5,198.9,83,8.4
0.467594,645.7,57.6,2135.1,98.4,2558.7,245.9,599.3,2068.2,2659.1,198.9,82.8,8.3
0.469594,655.4,69.7,2115.6,119.7,2536.6,267.0,598,2061.9,2653.8,198.9,82.5,8.5
0.471594,666.9,83.4,2089.9,142.5,2521.5,275.9,596.7,2055.6,2648.4,198.9,82.2,8.8
0.473594,679.6,97.9,2057.2,161.8,2516.5,279.6,595.4,2049.2,2643.1,198.9,81.8,9.2
0.475594,692.2,114.5,2017.9,172.9,2523.3,281.2,594.1,2042.8,2637.8,198.9,81.4,9.6
0.477594,702.4,132.4,1975.3,172.3,2538.6,279.0,592.7,2036.4,2632.5,198.9,81,9.9
0.479594,707.6,146.2,1933.8,161.9,2552.9,271.1,591.4,2030,2627.2,198.9,80.8,10.1
0.481594,706.7,151.3,1894.1,145.5,2561.4,258.1,590,2023.5,2621.9,198.9,80.7,10.3
0.483594,701.1,148.0,1855.8,125.8,2568.3,240.6,588.6,2017,2616.7,198.9,80.7,10.4
0.485594,692.4,139.3,1821.2,104.4,2579.9,219.4,587.2,2010.6,2611.4,198.9,80.8,10.5
0.487594,683.8,129.3,1794.8,85.4,2598.0,198.4,585.7,2004.1,2606.2,198.9,81,10.5
0.489594,678.1,123.2,1777.9,73.2,2618.3,183.0,584.3,1997.6,2601.1,198.9,81.1,10.4
0.491594,675.5,123.5,1767.7,69.0,2634.4,176.4,582.9,1991.1,2596,198.9,81.1,10.1
0.493594,673.8,129.3,1760.3,72.4,2642.2,181.0,581.4,1984.6,2590.9,198.9,81.1,9.8
0.495594,671.1,138.1,1752.1,83.5,2637.9,196.2,579.9,1978.1,2585.8,198.8,81.1,9.5
0.497594,667.6,144.8,1737.8,100.3,2618.7,211.4,578.5,1971.7,2580.8,198.8,81,9.4
0.499594,664.2,144.9,1714.2,114.0,2592.6,208.6,577,1965.2,2575.9,198.8,80.9,9.5
0.501594,660.8,140.3,1686.8,115.2,2573.8,189.1,575.5,1958.8,2571,198.8,80.9,9.7
0.503594,655.6,134.4,1662.2,105.6,2563.8,169.9,574,1952.4,2566.1,198.8,80.8,9.9
0.505594,647.0,126.2,1641.4,91.5,2556.7,157.8,572.5,1946,2561.3,198.8,80.8,10.3
0.507594,634.5,110.6,1622.2,74.6,2550.5,148.3,570.9,1939.6,2556.6,198.8,80.9,10.8
0.509594,622.5,90.1,1607.8,58.7,2548.5,138.0,569.4,1933.3,2551.9,198.8,80.9,11.5
0.511594,614.2,73.4,1599.9,47.7,2552.0,129.1,567.9,1927,2547.2,198.8,81,12.3
0.513594,608.9,63.9,1597.0,42.7,2558.0,125.9,566.3,1920.8,2542.7,198.8,81.1,13.2
0.515594,604.5,59.5,1597.3,42.5,2563.7,129.5,564.8,1914.6,2538.2,198.8,81.2,14.1
0.517594,599.5,56.6,1599.4,45.5,2566.7,137.3,563.2,1908.4,2533.8,198.8,81.2,14.8
