time,f1,b1,f2,b2,f3,b3,f1p,f2p,f3p,f0,intensity,harmonicity
0.025172,289.9,55.3,1460.4,952.9,2034.6,230.7,458.3,1676.4,2302.2,221.4,72.3,-11.3
0.027172,286.5,56.0,1423.6,895.9,2048.0,187.0,458.3,1676.7,2302.6,220.6,73.4,18.3
0.029172,283.1,56.3,1423.4,784.9,2060.3,150.8,458.4,1677.2,2303.2,219.9,74.2,25.8
0.031172,282.7,60.0,1437.8,714.7,2062.5,134.6,458.4,1677.8,2304,219.1,74.9,24.2
0.033172,288.2,66.8,1440.0,735.8,2053.8,137.2,458.5,1678.7,2305.1,218.3,75.4,18.4
0.035172,297.0,73.3,1433.4,823.2,2036.7,153.2,458.6,1679.7,2306.4,217.4,75.9,13.3
0.037172,303.9,78.5,1440.4,905.4,2017.9,182.2,458.7,1681,2307.9,216.6,76.2,12.7
0.039172,306.8,82.8,1479.2,875.1,2016.1,224.7,458.8,1682.4,2309.7,215.8,76.5,12.8
0.041172,307.5,85.8,1516.4,727.0,2051.4,248.8,458.9,1684,2311.7,215,76.7,12.8
0.043172,310.5,87.1,1534.7,626.1,2091.7,228.1,459.1,1685.7,2314,214.3,76.9,12.8
0.045172,316.7,85.0,1553.7,598.2,2112.1,205.3,459.2,1687.7,2316.5,213.5,77,12.8
0.047172,323.1,82.5,1575.5,585.6,2120.4,200.1,459.4,1689.9,2319.2,212.8,77.1,12.9
0.049172,328.4,84.1,1592.3,557.1,2124.8,212.3,459.6,1692.2,2322.1,212.1,77.2,12.9
0.051172,334.3,92.7,1600.2,534.3,2128.8,236.6,459.8,1694.7,2325.3,211.4,77.2,13
0.053172,343.0,107.5,1604.0,551.2,2131.9,259.9,460,1697.4,2328.7,210.8,77.2,13.1
0.055172,353.3,121.5,1608.2,603.9,2132.7,265.5,460.3,1700.2,2332.3,210.2,77.2,13.6
0.057172,361.6,128.0,1615.3,651.5,2132.1,254.6,460.5,1703.3,2336.1,209.6,77.3,14.5
0.059172,366.2,130.7,1632.8,674.4,2130.6,245.3,460.8,1706.5,2340.2,209.1,77.4,16.1
0.061172,368.3,140.7,1671.7,703.8,2125.5,253.5,461.1,1709.8,2344.4,208.6,77.5,18
0.063172,369.4,160.3,1722.5,744.6,2115.7,273.5,461.4,1713.4,2348.9,208.1,77.7,19.9
0.065172,370.2,181.6,1765.7,774.8,2104.2,292.2,461.7,1717.1,2353.6,207.7,77.9,21.2
0.067172,370.9,194.5,1792.9,774.4,2096.0,309.2,462,1720.9,2358.5,207.3,78.2,21.9
0.069172,371.8,196.0,1805.2,739.5,2093.6,330.0,462.3,1725,2363.6,206.9,78.4,22
0.071172,374.2,192.5,1801.5,692.8,2096.9,351.5,462.7,1729.1,2368.9,206.6,78.7,21.8
0.073172,382.1,190.5,1775.9,666.8,2101.7,362.1,463,1733.5,2374.4,206.3,79,21.2
0.075172,400.3,187.1,1730.1,656.8,2103.4,366.3,463.4,1737.9,2380.1,206,79.3,20.1
0.077172,427.3,175.5,1688.0,622.2,2104.9,391.5,463.8,1742.6,2385.9,205.8,79.7,18.5
0.079172,455.8,160.8,1682.0,548.1,2117.3,478.0,464.2,1747.3,2392,205.5,80,15.8
0.081172,483.0,153.0,1706.5,423.2,2185.3,677.9,464.6,1752.3,2398.2,205.3,80.3,12.6
0.083172,510.9,150.9,1714.4,291.9,2369.1,880.6,465.1,1757.3,2404.7,205.1,80.6,9.5
0.085172,540.2,143.8,1706.5,204.5,2577.7,899.5,465.5,1762.5,2411.3,204.9,80.9,7.2
0.087172,567.6,127.2,1695.1,147.8,2705.2,821.1,466,1767.8,2418,204.8,81.2,6.5
0.089172,588.1,108.1,1686.0,110.9,2767.6,748.8,466.5,1773.2,2425,204.6,81.6,7
0.091172,600.3,92.1,1680.9,88.3,2795.5,706.1,467,1778.8,2432,204.5,82.1,8.3
0.093172,606.0,80.5,1679.9,75.6,2797.6,687.0,467.5,1784.4,2439.3,204.4,82.5,10
0.095172,608.3,73.6,1683.0,70.2,2781.2,661.8,468,1790.2,2446.7,204.2,82.9,11.7
0.097172,608.9,71.7,1689.8,70.8,2765.2,619.1,468.5,1796.1,2454.2,204.1,83.2,12.9
0.099172,608.9,74.2,1700.3,76.2,2763.9,573.5,469,1802.1,2461.9,204.1,83.4,14.1
0.101172,608.7,79.9,1713.7,83.9,2778.5,529.6,469.6,1808.2,2469.7,204,83.5,15.2
0.103172,608.6,86.4,1728.2,90.6,2802.2,479.2,470.2,1814.4,2477.7,203.9,83.5,16.4
0.105172,608.7,91.9,1741.9,94.3,2826.2,420.8,470.7,1820.7,2485.8,203.9,83.5,17.5
0.107172,609.0,94.5,1753.8,96.0,2844.2,363.6,471.3,1827.1,2494,203.8,83.5,18.6
0.109172,609.2,93.7,1764.1,97.3,2851.8,317.4,471.9,1833.6,2502.3,203.8,83.6,19.8
0.111172,609.1,90.1,1773.4,98.6,2847.3,286.6,472.5,1840.1,2510.7,203.8,83.6,20.9
0.113172,608.4,84.6,1782.4,99.6,2833.7,270.7,473.2,1846.8,2519.3,203.8,83.7,21.9
0.115172,607.6,78.4,1791.7,100.2,2817.7,266.8,473.8,1853.5,2527.9,203.9,83.8,22.7
0.117172,607.1,72.6,1802.0,100.9,2805.8,270.2,474.5,1860.2,2536.7,203.9,83.9,23.2
0.119172,607.0,68.2,1814.2,101.8,2801.4,273.6,475.1,1867.1,2545.5,203.9,84,23.5
0.121172,607.1,65.6,1829.5,102.6,2803.1,271.6,475.8,1873.9,2554.4,204,84.1,23.5
0.123172,607.1,64.1,1848.5,103.3,2806.3,269.6,476.5,1880.9,2563.4,204.1,84.2,23.4
0.125172,607.3,63.0,1870.6,104.0,2807.6,273.0,477.1,1887.8,2572.5,204.2,84.2,23.2
0.127172,607.8,62.2,1893.1,104.7,2805.7,280.5,477.8,1894.9,2581.6,204.3,84.2,23.1
0.129172,608.3,61.1,1912.8,105.3,2801.5,291.4,478.6,1901.9,2590.8,204.4,84.3,22.9
0.131172,608.3,59.4,1928.4,105.8,2796.4,308.1,479.3,1909,2600.1,204.5,84.3,22.6
0.133172,607.7,56.4,1940.0,106.7,2789.9,332.0,480,1916.1,2609.4,204.6,84.4,22.3
0.135172,606.9,52.3,1948.6,108.9,2778.8,362.2,480.7,1923.2,2618.7,204.8,84.6,22
0.137172,606.2,47.6,1955.3,113.0,2758.8,391.7,481.5,1930.4,2628.1,204.9,84.7,21.8
0.139172,606.0,43.0,1962.4,117.6,2731.8,405.9,482.2,1937.6,2637.5,205.1,84.8,21.5
0.141172,605.9,38.9,1971.7,120.8,2706.0,399.6,483,1944.7,2647,205.2,85,21.3
0.143172,606.1,35.5,1983.1,121.5,2689.0,379.4,483.8,1951.9,2656.4,205.4,85.1,21.1
0.145172,606.2,32.5,1994.7,119.9,2683.2,352.6,484.6,1959.1,2665.9,205.6,85.2,20.9
0.147172,606.4,29.9,2004.9,116.6,2685.4,323.7,485.4,1966.2,2675.4,205.8,85.2,20.8
0.149172,606.4,27.6,2012.9,113.2,2689.2,297.9,486.2,1973.4,2684.9,205.9,85.2,20.8
0.151172,606.0,25.4,2019.3,110.9,2690.4,280.3,487,1980.5,2694.4,206.1,85.2,20.8
0.153172,605.3,23.9,2025.6,110.9,2689.4,274.1,487.8,1987.6,2703.9,206.3,85.2,20.7
0.155172,604.5,23.3,2034.6,114.1,2691.0,280.4,488.6,1994.7,2713.4,206.5,85.1,20.5
0.157172,603.8,23.6,2047.9,119.5,2698.4,296.0,489.4,2001.7,2722.8,206.7,85.1,19.9
0.159172,603.1,24.4,2064.0,125.2,2708.0,316.2,490.3,2008.7,2732.3,206.9,85,19.1
0.161172,602.0,25.2,2080.0,130.4,2713.8,342.7,491.1,2015.7,2741.7,207.1,84.8,18.1
0.163172,600.3,26.2,2094.3,135.0,2715.5,379.0,491.9,2022.6,2751,207.3,84.6,17.1
0.165172,597.7,27.8,2107.3,138.0,2723.0,419.0,492.8,2029.5,2760.3,207.5,84.3,16.1
0.167172,594.0,30.5,2119.5,135.8,2753.5,431.5,493.7,2036.3,2769.6,207.8,84,15.4
0.169172,589.2,34.8,2130.2,127.6,2795.8,373.2,494.5,2043,2778.8,208,83.6,14.9
0.171172,583.0,40.7,2139.3,118.0,2821.6,288.6,495.4,2049.7,2788,208.3,83.1,14.4
0.173172,575.0,48.3,2147.6,110.4,2837.4,222.6,496.3,2056.3,2797.1,208.6,82.6,14
0.175172,564.5,57.8,2155.4,104.8,2849.8,176.5,497.1,2062.8,2806.1,208.9,82.1,13.6
0.177172,550.4,69.1,2161.2,99.6,2859.0,144.1,498,2069.2,2815.1,209.2,81.5,13.2
0.179172,532.2,82.0,2162.9,93.7,2863.4,120.9,498.9,2075.6,2823.9,209.5,81,12.7
0.181172,510.9,95.2,2158.9,87.2,2863.2,104.3,499.8,2081.8,2832.7,209.9,80.4,12.3
0.183172,489.4,107.6,2149.2,80.6,2860.0,93.2,500.7,2088,2841.4,210.3,79.7,11.9
0.185172,470.2,117.1,2135.8,75.4,2855.8,88.0,501.6,2094,2850,210.7,79.1,11.5
0.187172,454.9,121.8,2120.8,72.5,2851.6,90.3,502.5,2100,2858.5,211.2,78.4,11
0.189172,444.2,122.1,2106.6,72.0,2846.0,102.3,503.4,2105.8,2866.9,211.7,77.7,10.4
0.191172,438.9,121.1,2097.1,74.3,2836.6,124.8,504.3,2111.6,2875.1,212.3,77,9.8
0.193172,437.7,122.4,2095.4,81.7,2821.3,155.0,505.2,2117.2,2883.3,212.8,76.4,9.3
0.195172,436.4,128.0,2102.0,96.1,2803.9,184.7,506.1,2122.7,2891.3,213.5,75.9,9.1
0.197172,433.3,138.6,2114.9,117.1,2795.8,205.4,507,2128.1,2899.2,214.1,75.6,9.3
0.199172,431.7,151.8,2126.3,141.0,2800.3,214.2,507.9,2133.3,2907,214.8,75.5,10.2
0.201172,426.5,145.7,2123.1,181.9,2812.9,233.3,508.8,2138.4,2914.7,215.6,75.6,11.4
0.203172,415.4,116.6,2104.4,223.3,2814.1,254.4,509.8,2143.4,2922.2,216.4,76,12.6
0.205172,408.6,87.4,2101.1,213.9,2799.5,251.3,510.7,2148.2,2929.5,217.2,76.6,13.6
0.207172,407.5,66.0,2126.7,173.1,2794.3,230.0,511.6,2152.9,2936.7,218,77.3,14
0.209172,410.7,50.0,2162.5,135.9,2808.1,204.2,512.5,2157.5,2943.8,218.9,78.1,14.1
0.211172,416.5,38.8,2193.6,115.3,2829.1,180.7,513.4,2161.9,2950.7,219.8,79,13.9
0.213172,422.9,32.3,2218.6,110.4,2847.0,163.2,514.3,2166.1,2957.5,220.8,79.7,13.7
0.215172,428.3,29.0,2243.0,114.7,2863.8,150.7,515.2,2170.2,2964,221.8,80.4,13.4
0.217172,432.3,27.2,2272.5,123.0,2884.1,142.0,516.1,2174.1,2970.5,222.7,80.9,13.2
0.219172,435.1,25.4,2309.5,133.0,2908.3,137.7,517,2177.9,2976.7,223.7,81.2,12.8
0.221172,437.5,23.2,2353.7,144.5,2934.0,140.0,518,2181.4,2982.8,224.8,81.4,12.4
0.223172,439.7,20.9,2401.4,156.7,2959.0,150.7,518.9,2184.9,2988.7,225.8,81.4,12.1
0.225172,441.7,19.1,2444.9,167.1,2981.6,169.0,519.8,2188.1,2994.4,226.8,81.3,12.1
0.227172,443.3,18.7,2474.7,173.7,3000.3,191.7,520.7,2191.2,2999.9,227.9,81.1,12.6
0.229172,443.8,19.7,2488.3,175.6,3015.2,214.9,521.5,2194.1,3005.3,228.9,80.9,13.7
0.231172,442.7,21.7,2494.1,171.6,3029.5,237.8,522.4,2196.8,3010.4,230,80.7,15.2
0.233172,440.1,24.4,2500.2,161.4,3046.3,262.8,523.3,2199.4,3015.4,231,80.6,16.6
0.235172,436.8,27.7,2508.7,146.7,3066.7,291.7,524.2,2201.7,3020.2,232.1,80.5,17.8
0.237172,433.4,31.5,2518.3,131.9,3091.1,321.0,525.1,2203.9,3024.7,233.1,80.4,18.6
0.239172,430.9,35.6,2528.6,121.2,3119.1,342.0,526,2205.9,3029.1,234.1,80.3,19
0.241172,429.5,38.9,2539.4,116.9,3147.8,351.5,526.8,2207.7,3033.3,235.2,80.3,19.2
0.243172,429.6,41.2,2549.8,118.2,3174.7,353.6,527.7,2209.3,3037.3,236.2,80.2,19.3
0.245172,431.1,42.7,2557.9,122.9,3199.7,354.8,528.5,2210.7,3041.1,237.3,80.2,19.3
0.247172,434.4,44.1,2562.1,128.5,3226.4,360.0,529.4,2212,3044.6,238.3,80.2,19.2
0.249172,439.2,45.5,2562.8,133.2,3258.6,368.9,530.2,2213,3048,239.4,80.1,19
0.251172,444.5,46.9,2561.4,137.7,3293.2,373.5,531.1,2213.8,3051.1,240.4,80,18.7
0.253172,449.9,47.6,2559.7,143.7,3320.8,368.9,531.9,2214.5,3054.1,241.4,80,18.4
0.255172,456.0,47.4,2557.8,151.2,3337.1,359.1,532.7,2214.9,3056.8,242.5,79.9,18
0.257172,462.9,46.1,2553.7,157.7,3343.0,350.6,533.5,2215.2,3059.3,243.5,79.9,17.6
0.259172,470.1,43.7,2543.0,157.8,3337.6,346.5,534.4,2215.2,3061.6,244.6,79.9,17.1
0.261172,477.0,40.3,2524.4,147.3,3320.2,345.8,535.2,2215.1,3063.7,245.6,80,16.6
0.263172,483.4,36.0,2503.8,130.3,3295.8,347.7,535.9,2214.7,3065.6,246.7,80.1,16.1
0.265172,489.3,31.6,2487.3,115.1,3274.2,353.7,536.7,2214.2,3067.3,247.7,80.3,15.7
0.267172,494.4,28.0,2475.8,105.7,3261.7,363.7,537.5,2213.5,3068.7,248.8,80.6,15.5
0.269172,498.8,25.3,2467.5,102.5,3256.1,372.6,538.3,2212.5,3070,249.8,80.9,15.5
0.271172,502.7,23.6,2460.5,105.4,3245.8,375.7,539,2211.4,3071,250.8,81.2,15.6
0.273172,506.4,22.7,2454.9,113.4,3220.6,372.2,539.8,2210,3071.8,251.9,81.6,15.7
0.275172,509.7,22.3,2450.7,123.2,3185.2,360.5,540.5,2208.5,3072.4,252.9,81.9,15.8
0.277172,513.0,22.6,2447.2,131.1,3154.0,343.0,541.2,2206.8,3072.8,254,82.2,15.8
0.279172,516.4,23.6,2442.1,137.3,3134.5,328.8,541.9,2204.9,3072.9,255,82.5,15.7
0.281172,520.0,25.0,2432.9,144.5,3124.4,327.1,542.6,2202.7,3072.9,256.1,82.8,15.6
0.283172,523.3,26.4,2418.4,153.9,3118.9,342.5,543.3,2200.4,3072.6,257.1,83,15.5
0.285172,525.9,27.7,2398.4,164.1,3114.1,372.4,544,2197.9,3072.2,258.2,83.2,15.5
0.287172,527.8,29.2,2374.5,171.8,3108.1,403.6,544.7,2195.2,3071.5,259.2,83.3,15.5
0.289172,529.5,31.1,2351.0,174.8,3101.7,417.8,545.3,2192.4,3070.6,260.3,83.4,15.6
0.291172,531.1,33.2,2333.6,174.2,3095.2,409.1,546,2189.3,3069.5,261.3,83.5,15.8
0.293172,532.7,35.3,2325.3,173.3,3090.0,389.0,546.6,2186,3068.2,262.4,83.4,15.9
0.295172,534.4,37.9,2325.5,174.4,3091.1,371.5,547.2,2182.6,3066.7,263.5,83.3,16.1
0.297172,536.3,41.5,2330.4,178.4,3098.9,362.3,547.8,2178.9,3065.1,264.5,83.2,16.4
0.299172,538.4,46.7,2333.7,185.7,3105.5,358.1,548.4,2175.1,3063.2,265.6,82.9,16.7
0.301172,541.0,54.4,2328.1,197.3,3099.2,352.5,549,2171.1,3061.1,266.7,82.6,17.2
0.303172,544.2,64.8,2308.0,213.6,3075.3,340.2,549.5,2167,3058.8,267.8,82.3,17.5
0.305172,548.0,75.7,2271.3,229.0,3042.0,319.4,550.1,2162.6,3056.3,268.9,82,17.7
0.307172,552.4,83.9,2222.6,230.9,3013.2,293.6,550.6,2158.1,3053.6,270,81.7,17.7
0.309172,557.2,88.4,2177.1,214.9,2997.9,268.4,551.1,2153.5,3050.8,271.2,81.5,17.5
0.311172,562.1,91.8,2146.8,194.4,2994.6,244.3,551.6,2148.6,3047.8,272.3,81.4,17.1
0.313172,566.6,95.9,2128.5,183.3,2994.4,222.9,552.1,2143.6,3044.5,273.4,81.3,16.7
0.315172,570.3,100.5,2112.7,186.9,2990.9,211.9,552.6,2138.4,3041.1,274.6,81.3,16.4
0.317172,573.8,104.8,2091.3,203.6,2983.3,215.4,553,2133.1,3037.6,275.7,81.3,16.1
0.319172,578.4,108.7,2060.3,224.4,2971.9,231.7,553.5,2127.6,3033.8,276.9,81.2,15.9
0.321172,584.6,111.8,2024.1,230.8,2956.1,255.3,553.9,2122,3029.9,278.1,81.2,15.8
0.323172,592.0,113.0,1992.8,213.2,2934.7,277.3,554.3,2116.2,3025.8,279.3,81,15.7
0.325172,600.1,111.7,1971.1,181.2,2911.0,286.1,554.7,2110.3,3021.6,280.5,80.9,15.6
0.327172,608.8,108.4,1957.3,149.0,2893.9,278.1,555.1,2104.2,3017.2,281.7,80.7,15.6
0.329172,617.8,104.5,1949.0,125.1,2887.5,262.3,555.4,2098,3012.6,282.8,80.6,15.7
0.331172,626.6,101.3,1943.8,112.5,2886.6,249.2,555.7,2091.6,3007.9,284,80.4,15.8
0.333172,634.7,99.7,1940.4,110.9,2884.7,244.5,556.1,2085.2,3003.1,285.2,80.3,15.9
0.335172,641.3,100.0,1938.9,118.6,2879.7,249.0,556.4,2078.6,2998.1,286.4,80.2,16
0.337172,645.3,100.6,1939.2,133.4,2873.9,260.6,556.6,2071.8,2992.9,287.6,80.1,16
0.339172,645.8,99.9,1939.3,152.6,2872.0,276.5,556.9,2065,2987.7,288.7,80.1,15.9
0.341172,643.2,97.5,1935.8,174.6,2874.5,292.5,557.1,2058.1,2982.3,289.9,80,15.8
0.343172,638.8,94.6,1925.1,198.1,2873.1,303.9,557.4,2051,2976.7,291,80,15.7
0.345172,633.8,94.0,1907.6,218.8,2861.4,304.3,557.6,2043.8,2971.1,292.1,80,15.7
0.347172,628.6,97.1,1887.5,228.2,2843.9,291.0,557.8,2036.5,2965.3,293.2,80,15.9
0.349172,623.4,101.8,1867.9,221.9,2827.9,267.4,557.9,2029.2,2959.4,294.2,80,16.2
0.351172,619.0,105.1,1849.2,206.6,2817.3,242.2,558.1,2021.7,2953.4,295.3,80,16.5
0.353172,616.8,106.4,1832.1,194.3,2810.9,225.2,558.2,2014.2,2947.3,296.3,80.1,16.9
0.355172,617.6,106.5,1817.5,191.4,2805.3,219.6,558.3,2006.5,2941.1,297.3,80.2,17.3
0.357172,620.8,105.0,1804.7,196.2,2797.8,222.0,558.4,1998.8,2934.8,298.2,80.3,17.7
0.359172,624.9,100.8,1791.5,203.4,2789.1,228.1,558.5,1991,2928.4,299.1,80.4,18.1
0.361172,629.2,94.2,1775.8,208.8,2779.8,234.2,558.5,1983.2,2922,299.9,80.5,18.6
0.363172,632.9,86.5,1758.1,210.6,2770.0,235.5,558.5,1975.3,2915.4,300.8,80.7,18.9
0.365172,635.5,79.0,1741.3,208.7,2761.4,227.0,558.6,1967.3,2908.8,301.5,80.8,19.3
0.367172,636.3,71.7,1728.3,206.5,2756.9,212.0,558.5,1959.2,2902.1,302.3,81,19.4
0.369172,635.3,64.4,1718.2,209.8,2757.9,201.3,558.5,1951.1,2895.3,303,81.2,19.4
0.371172,633.3,57.7,1705.8,223.6,2762.3,199.7,558.5,1943,2888.5,303.6,81.5,19.3
0.373172,631.3,52.3,1684.3,249.0,2766.3,204.0,558.4,1934.8,2881.6,304.2,81.7,19.1
0.375172,630.2,48.9,1648.8,282.2,2767.5,207.6,558.3,1926.6,2874.6,304.8,82,19.1
0.377172,629.8,47.3,1602.8,307.7,2765.6,206.1,558.2,1918.4,2867.6,305.2,82.3,19.4
0.379172,629.2,46.0,1562.5,307.2,2763.5,203.4,558,1910.1,2860.6,305.7,82.5,19.9
0.381172,627.5,43.5,1540.9,280.8,2762.2,208.7,557.9,1901.8,2853.5,306.1,82.7,20.5
0.383172,624.5,39.7,1534.2,240.5,2759.3,225.1,557.7,1893.5,2846.4,306.4,82.9,21.1
0.385172,620.4,35.1,1532.8,199.6,2749.8,251.5,557.5,1885.2,2839.3,306.7,83.1,21.5
0.387172,615.7,31.0,1532.3,168.2,2731.5,288.4,557.3,1876.8,2832.1,306.9,83.2,21.7
0.389172,611.1,28.6,1532.8,149.1,2710.5,336.4,557,1868.5,2825,307,83.2,21.8
0.391172,606.6,27.7,1534.1,139.3,2698.7,395.1,556.7,1860.2,2817.8,307.1,83.1,21.7
0.393172,602.5,28.4,1535.7,135.9,2704.9,463.8,556.5,1851.9,2810.6,307.1,82.8,21.4
0.395172,598.0,30.5,1537.3,138.4,2728.2,543.7,556.1,1843.6,2803.4,307.1,82.5,21.1
0.397172,592.5,34.8,1539.8,148.6,2763.0,643.7,555.8,1835.3,2796.2,306.9,81.9,20.7
0.399172,585.1,42.2,1544.8,168.1,2809.1,761.5,555.5,1827,2789,306.7,81.3,20.2
0.401172,574.8,53.5,1551.1,196.7,2846.9,853.0,555.1,1818.8,2781.9,306.3,80.5,19.5
0.403172,559.2,67.7,1549.9,235.8,2816.4,917.7,554.7,1810.6,2774.7,305.9,79.6,18.8
0.405172,535.0,84.5,1532.9,282.5,2719.7,928.2,554.3,1802.4,2767.6,305.3,78.7,18.2
0.407172,500.4,104.2,1503.3,317.9,2642.6,819.2,553.8,1794.3,2760.5,304.6,77.8,17.5
0.409172,458.9,122.6,1473.2,329.7,2618.0,650.9,553.4,1786.3,2753.4,303.8,77.1,16.7
0.411172,425.5,136.4,1451.5,343.0,2618.6,510.9,552.9,1778.2,2746.4,302.7,76.5,15.8
0.413172,415.1,149.4,1432.3,399.2,2623.5,445.2,552.4,1770.3,2739.4,301.6,76.1,15.1
0.415172,425.7,163.5,1407.1,509.5,2632.0,439.1,551.9,1762.4,2732.4,300.2,75.8,14.9
0.417172,446.4,174.4,1376.0,647.8,2647.7,463.8,551.3,1754.6,2725.5,298.6,75.6,15.4
0.419172,467.8,177.7,1351.3,769.0,2671.5,498.3,550.7,1746.8,2718.7,296.7,75.5,16.7
0.421172,483.7,172.6,1347.1,838.7,2692.3,529.8,550.1,1739.1,2711.9,294.7,75.4,18.6
0.423172,492.2,163.4,1363.9,852.1,2697.9,558.0,549.5,1731.5,2705.1,292.3,75.2,20.5
0.425172,494.7,155.0,1396.7,819.5,2692.9,589.0,548.9,1724,2698.5,289.7,75.1,22.2
0.427172,493.6,148.5,1434.0,744.3,2683.0,616.0,548.2,1716.6,2691.9,286.9,74.9,23.1
0.429172,490.3,141.9,1457.6,638.1,2661.5,613.4,547.6,1709.3,2685.4,283.7,74.8,23.7
0.431172,486.6,134.5,1465.9,533.5,2633.5,565.4,546.9,1702,2678.9,280.2,74.7,24.1
0.433172,484.5,128.2,1469.9,455.7,2616.0,497.3,546.1,1694.9,2672.6,276.4,74.7,24.2
0.435172,484.3,123.9,1472.9,404.8,2607.9,442.1,545.4,1687.9,2666.3,272.3,74.8,24.2
0.437172,485.1,118.5,1472.0,361.7,2600.3,402.1,544.6,1681,2660.1,267.9,74.9,24.3
0.439172,486.5,110.4,1469.2,313.4,2596.0,366.6,543.9,1674.2,2654,263.3,75.1,24.2
0.441172,489.7,101.8,1469.4,267.9,2601.3,337.7,543,1667.5,2648.1,258.3,75.4,24.1
0.443172,495.4,94.9,1474.0,235.2,2610.9,322.4,542.2,1660.9,2642.2,253.2,75.7,23.9
0.445172,503.5,88.6,1481.5,214.4,2614.1,320.0,541.4,1654.5,2636.4,247.8,76,23.3
0.447172,512.8,81.5,1490.5,200.7,2605.1,324.2,540.5,1648.2,2630.7,242.2,76.4,22.5
0.449172,521.8,73.7,1499.9,192.1,2585.9,327.3,539.6,1642,2625.2,236.5,76.7,21.4
0.451172,529.7,66.9,1510.9,191.7,2565.8,325.4,538.7,1636,2619.7,230.7,77,20
0.453172,536.7,63.3,1527.3,205.1,2555.9,324.3,537.8,1630.1,2614.4,224.8,77.2,18.5
0.455172,542.7,62.9,1552.5,233.0,2559.4,327.2,536.9,1624.4,2609.2,218.9,77.4,16.9
0.457172,546.6,63.4,1583.1,259.6,2572.3,323.8,535.9,1618.8,2604.1,213,77.5,15.3
0.459172,546.4,62.9,1606.8,265.0,2588.6,310.2,534.9,1613.4,2599.2,207.1,77.6,13.4
0.461172,540.8,62.0,1616.9,252.2,2607.8,309.0,533.9,1608.1,2594.4,201.4,77.6,11.4
0.463172,530.7,62.5,1619.0,234.5,2636.8,350.3,532.9,1602.9,2589.7,195.8,77.5,9.6
0.465172,519.4,63.3,1620.8,212.9,2676.6,442.0,531.9,1598,2585.1,190.4,77.5,8
0.467172,511.6,62.1,1627.0,189.9,2707.4,538.1,530.8,1593.1,2580.7,185.2,77.6,6.9
0.469172,509.0,60.6,1641.3,175.3,2701.9,555.1,529.7,1588.5,2576.4,180.2,77.8,6.1
0.471172,511.0,60.3,1664.0,163.4,2674.0,484.9,528.6,1584,2572.3,175.5,78.1,5.6
0.473172,516.5,59.6,1685.5,141.6,2655.5,386.6,527.5,1579.7,2568.3,171.1,78.6,5.3
0.475172,523.5,56.4,1697.2,116.6,2648.8,293.5,526.4,1575.6,2564.4,166.9,79.1,5.3
0.477172,529.7,51.0,1701.6,99.3,2646.9,220.7,525.3,1571.6,2560.7,163.1,79.7,5.7
0.479172,532.9,44.5,1703.4,92.7,2646.9,172.8,524.1,1567.8,2557.2,159.6,80.2,6.7
0.481172,532.8,38.9,1706.9,96.6,2648.5,146.7,522.9,1564.2,2553.8,156.3,80.7,8
0.483172,530.5,34.9,1715.4,110.6,2651.8,137.7,521.7,1560.8,2550.5,153.4,81.1,9.4
0.485172,527.7,32.0,1731.3,131.5,2655.2,143.0,520.5,1557.6,2547.4,150.7,81.4,10.4
0.487172,525.5,29.7,1752.6,149.1,2655.7,161.7,519.3,1554.5,2544.4,148.3,81.5,10.9
0.489172,524.9,28.3,1769.2,152.7,2650.6,191.2,518,1551.7,2541.7,146.2,81.5,10.9
0.491172,525.9,28.2,1772.0,145.5,2640.8,222.6,516.8,1549,2539,144.2,81.4,10.7
0.493172,527.2,28.8,1765.3,138.8,2633.7,246.5,515.5,1546.5,2536.5,142.6,81.2,10.3
0.495172,528.2,29.7,1756.7,142.7,2633.2,265.5,514.2,1544.2,2534.2,141.1,80.9,9.8
0.497172,529.1,31.2,1752.0,171.0,2630.0,288.6,512.9,1542.1,2532,139.7,80.8,9.2
0.499172,530.8,33.1,1758.9,224.3,2616.2,305.5,511.6,1540.2,2530,138.6,80.6,8.3
0.501172,532.6,33.9,1772.3,248.2,2609.6,294.5,510.3,1538.4,2528.2,137.6,80.6,7.3
0.503172,532.9,33.2,1776.1,231.9,2614.1,270.5,508.9,1536.9,2526.5,136.7,80.6,6.3
0.505172,531.1,32.0,1770.7,222.3,2619.8,263.4,507.6,1535.6,2524.9,135.9,80.5,5.5
0.507172,527.7,31.4,1760.5,253.0,2623.6,294.1,506.2,1534.4,2523.6,135.2,80.4,5.3
0.509172,524.0,32.7,1750.4,366.4,2624.3,380.1,504.8,1533.5,2522.3,134.6,80.3,5.4
0.511172,520.4,35.7,1752.4,604.9,2613.5,515.9,503.4,1532.7,2521.3,134.1,80,5.8
0.513172,515.3,37.9,1768.7,787.9,2599.9,643.4,502,1532.2,2520.4,133.6,79.8,6.3
0.515172,507.2,37.7,1752.2,637.5,2618.5,687.9,500.6,1531.8,2519.6,133.2,79.5,7.1
