time,f1,b1,f2,b2,f3,b3,f1p,f2p,f3p,f0,intensity,harmonicity
0.025719,546.9,18.8,2386.6,156.6,2911.6,147.4,463.9,1955.6,2593,0,71.2,6
0.027719,543.5,28.5,2374.1,94.3,2901.8,95.3,463.9,1955.7,2593,0,71.3,5.5
0.029719,546.8,44.0,2366.5,72.2,2899.6,74.6,463.9,1955.9,2593,0,71.6,4.5
0.031719,551.5,48.5,2361.6,61.8,2902.2,65.2,463.9,1956.2,2593.1,0,72.2,3.4
0.033719,553.1,44.8,2357.4,55.9,2907.1,60.3,463.9,1956.5,2593.2,0,72.8,2.4
0.035719,553.3,40.8,2353.9,53.4,2914.0,58.3,463.8,1957,2593.2,0,73.5,1.7
0.037719,554.4,39.1,2351.7,56.0,2921.7,60.5,463.8,1957.5,2593.4,0,74.2,1.5
0.039719,556.8,36.0,2351.2,70.0,2928.8,71.0,463.8,1958.1,2593.5,0,74.9,1.6
0.041719,557.1,31.1,2353.7,95.8,2932.9,91.8,463.7,1958.8,2593.6,189.6,75.5,1.9
0.043719,554.7,28.0,2356.8,106.1,2938.2,116.1,463.7,1959.6,2593.8,189.9,76,2.5
0.045719,551.4,27.4,2356.4,95.2,2945.0,137.5,463.6,1960.4,2594,190.2,76.4,3.3
0.047719,549.8,30.1,2355.7,88.3,2943.5,149.0,463.6,1961.3,2594.1,190.5,76.6,4.3
0.049719,551.6,36.3,2356.7,89.0,2931.7,146.2,463.5,1962.3,2594.3,190.8,76.8,5.8
0.051719,555.6,42.3,2357.6,92.0,2915.8,135.2,463.5,1963.4,2594.6,191.2,77,7.6
0.053719,558.8,44.1,2356.4,93.2,2898.7,123.0,463.4,1964.5,2594.8,191.5,77.1,9.4
0.055719,559.5,42.2,2353.1,92.0,2882.2,112.8,463.3,1965.7,2595.1,191.8,77.3,10.9
0.057719,558.8,41.0,2349.4,91.1,2871.9,108.8,463.3,1967,2595.3,192.1,77.4,12
0.059719,558.1,42.7,2346.4,94.1,2870.2,112.9,463.2,1968.3,2595.6,192.4,77.6,12.7
0.061719,558.2,46.2,2343.3,102.3,2876.3,123.8,463.1,1969.8,2595.9,192.7,77.7,13.1
0.063719,558.3,49.7,2338.8,116.5,2885.0,137.5,463,1971.2,2596.2,193,77.9,13.5
0.065719,557.2,52.3,2332.3,140.6,2888.6,152.3,463,1972.8,2596.5,193.3,78,13.8
0.067719,554.6,54.7,2323.8,176.2,2880.6,166.9,462.9,1974.4,2596.9,193.6,78.1,14.2
0.069719,551.0,58.0,2305.2,220.9,2860.4,177.2,462.8,1976.1,2597.2,193.9,78.1,14.6
0.071719,547.1,62.4,2270.1,254.5,2837.5,177.4,462.7,1977.9,2597.6,194.2,78.1,14.9
0.073719,542.7,67.7,2224.4,273.7,2820.1,179.0,462.6,1979.7,2598,194.5,78,15.1
0.075719,536.4,73.9,2173.8,295.6,2809.7,198.7,462.5,1981.5,2598.3,194.8,77.9,15.2
0.077719,527.5,80.1,2119.8,333.6,2806.3,247.9,462.4,1983.5,2598.7,195.1,77.8,15
0.079719,514.6,86.8,2052.1,394.5,2808.9,348.7,462.3,1985.4,2599.2,195.3,77.6,14.5
0.081719,499.1,92.7,1972.4,464.9,2819.7,511.9,462.2,1987.5,2599.6,195.6,77.5,13.8
0.083719,481.2,96.7,1878.6,508.9,2856.9,719.9,462,1989.6,2600,195.9,77.3,13.1
0.085719,461.2,99.8,1788.3,473.5,2919.1,824.8,461.9,1991.7,2600.5,196.2,77.3,12.4
0.087719,439.0,100.8,1734.1,412.0,2602.8,10083.2,461.8,1993.9,2600.9,196.5,77.3,11.9
0.089719,413.1,91.5,1706.6,399.4,2804.5,7051.1,461.7,1996.1,2601.4,196.8,77.5,11.3
0.091719,394.1,73.4,1697.5,463.4,2702.6,761.9,461.6,1998.4,2601.8,197.1,77.8,10.8
0.093719,385.5,58.3,1684.0,625.4,2504.0,843.2,461.4,2000.7,2602.3,197.4,78.2,10.5
0.095719,383.0,49.2,1595.0,770.2,2296.2,556.8,461.3,2003.1,2602.8,197.7,78.6,10.7
0.097719,383.0,44.1,1521.2,714.0,2255.1,346.6,461.2,2005.5,2603.3,198,79.1,11.6
0.099719,384.2,42.0,1510.9,636.8,2251.5,251.6,461.1,2007.9,2603.8,198.4,79.4,13.4
0.101719,386.3,43.6,1549.7,609.2,2267.7,219.4,460.9,2010.4,2604.3,198.7,79.7,15.7
0.103719,388.6,47.7,1613.8,596.1,2293.1,212.3,460.8,2012.9,2604.9,199.1,79.9,18.1
0.105719,390.7,52.9,1676.7,564.3,2320.2,211.5,460.7,2015.4,2605.4,199.4,80,20.4
0.107719,392.1,57.5,1714.0,526.4,2341.7,208.1,460.5,2018,2605.9,199.8,80.1,22.2
0.109719,393.2,61.0,1730.7,498.1,2318.5,6369.4,460.4,2020.5,2606.5,200.1,80.1,23.8
0.111719,394.2,63.1,1737.0,480.3,2246.4,5453.3,460.3,2023.1,2607,200.5,80.2,25.4
0.113719,395.3,63.9,1743.0,469.3,2179.0,4563.6,460.1,2025.8,2607.6,200.9,80.2,26.7
0.115719,396.3,63.6,1751.7,472.4,2126.8,3713.9,460,2028.4,2608.1,201.3,80.2,27.6
0.117719,397.3,63.3,1762.5,494.9,2087.5,3054.8,459.9,2031,2608.7,201.7,80.2,28
0.119719,398.3,64.4,1775.9,542.9,2053.7,2540.0,459.7,2033.7,2609.2,202.1,80.2,27.7
0.121719,399.1,66.5,1787.0,628.0,2033.5,2091.1,459.6,2036.4,2609.8,202.5,80.2,27.1
0.123719,399.4,68.4,1772.7,783.0,2052.9,1608.6,459.5,2039.1,2610.4,202.9,80.3,26.2
0.125719,399.0,69.5,1674.6,883.9,2181.4,1261.1,459.4,2041.7,2610.9,203.3,80.4,25.6
0.127719,398.4,70.0,1610.5,837.2,2298.4,1218.1,459.2,2044.4,2611.5,203.8,80.5,25.2
0.129719,398.2,70.1,1579.3,781.6,2317.0,273.4,459.1,2047.1,2612.1,204.2,80.6,25.1
0.131719,398.4,69.2,1557.3,745.7,2308.8,265.9,459,2049.8,2612.6,204.6,80.7,25.1
0.133719,398.7,67.2,1536.8,731.5,2304.1,271.2,458.8,2052.5,2613.2,205,80.9,25.1
0.135719,399.1,65.5,1532.1,741.8,2305.2,277.4,458.7,2055.1,2613.8,205.5,81,25.1
0.137719,399.8,65.0,1557.8,766.6,2311.4,270.6,458.6,2057.8,2614.3,205.9,81.1,25.2
0.139719,401.1,65.9,1612.0,778.7,2183.9,1938.7,458.5,2060.4,2614.9,206.3,81.2,25.2
0.141719,402.8,67.3,1671.5,774.9,2012.4,2206.2,458.4,2063.1,2615.5,206.8,81.3,25.2
0.143719,404.6,68.6,1735.8,799.0,1848.8,2171.5,458.2,2065.7,2616,207.2,81.3,25.3
0.145719,406.2,68.7,1695.2,1909.7,1835.2,841.0,458.1,2068.2,2616.6,207.6,81.4,25.7
0.147719,407.3,67.8,1582.4,1770.0,1930.2,792.2,458,2070.8,2617.1,208,81.4,26.5
0.149719,408.2,66.6,1545.1,1822.5,1960.6,725.2,457.9,2073.3,2617.7,208.4,81.3,28.1
0.151719,409.5,66.7,1545.2,2122.8,1938.7,681.4,457.8,2075.8,2618.2,208.8,81.3,30.1
0.153719,411.2,68.3,1503.6,2733.8,1905.5,635.3,457.7,2078.3,2618.8,209.2,81.2,31.8
0.155719,413.1,70.7,1309.9,3818.3,1874.9,607.4,457.6,2080.8,2619.3,209.6,81.1,32.3
0.157719,414.8,73.2,1827.1,595.8,2339.0,206.4,457.5,2083.2,2619.9,210,81,30.9
0.159719,415.1,73.9,1723.6,571.3,2330.8,178.2,457.4,2085.5,2620.4,210.3,81,27.4
0.161719,414.9,69.2,1586.2,458.1,2329.2,172.8,457.4,2087.8,2620.9,210.7,81.1,22.8
0.163719,419.7,62.3,1513.5,304.1,2336.6,197.0,457.3,2090.1,2621.4,211,81.2,18
0.165719,429.5,56.0,1495.4,220.1,2347.8,253.0,457.2,2092.3,2621.9,211.2,81.5,14.1
0.167719,438.8,50.6,1499.2,199.4,2346.1,322.5,457.1,2094.5,2622.4,211.5,81.8,12
0.169719,445.0,46.6,1516.7,222.5,2337.7,366.0,457.1,2096.7,2622.9,211.7,82.1,10.9
0.171719,448.1,46.3,1554.5,287.7,2372.2,363.0,457,2098.7,2623.4,212,82.4,10.5
0.173719,449.0,46.1,1599.8,414.4,2414.7,346.0,456.9,2100.7,2623.9,212.2,82.6,10.7
0.175719,449.7,46.0,1625.3,617.1,2427.4,301.8,456.9,2102.7,2624.4,212.3,82.8,11.4
0.177719,452.7,50.3,1667.8,870.1,2441.8,253.8,456.8,2104.6,2624.8,212.5,82.8,12.5
0.179719,458.3,57.2,1764.3,1211.7,2454.6,226.4,456.8,2106.4,2625.3,212.6,82.9,14.5
0.181719,464.5,63.5,1964.5,1682.0,2458.1,213.2,456.8,2108.2,2625.7,212.7,82.9,17
0.183719,470.1,67.7,2452.4,200.9,2615.4,1798.1,456.8,2109.9,2626.1,212.8,82.9,19.6
0.185719,473.8,68.9,2445.7,180.2,2759.4,1169.4,456.7,2111.6,2626.6,212.8,82.9,21.7
0.187719,474.5,67.5,2445.3,161.6,2808.2,971.4,456.7,2113.1,2627,212.9,83,22.7
0.189719,472.9,65.1,2448.4,150.9,2838.6,871.1,456.7,2114.6,2627.4,212.9,83,23
0.191719,469.9,62.6,2451.2,148.9,2855.6,804.5,456.7,2116,2627.8,212.9,83.1,22.8
0.193719,466.2,59.9,2453.0,153.8,2864.9,755.4,456.7,2117.4,2628.2,212.9,83.1,22.4
0.195719,462.4,56.7,2454.0,165.2,2871.0,727.7,456.7,2118.6,2628.5,212.9,83.2,22.1
0.197719,459.4,53.6,2453.1,181.4,2877.1,721.1,456.8,2119.8,2628.9,212.9,83.3,22.2
0.199719,457.2,50.4,2446.9,200.2,2886.3,722.3,456.8,2120.9,2629.2,212.9,83.4,22.7
0.201719,455.5,47.3,2431.9,211.3,2898.6,715.8,456.8,2121.9,2629.6,212.9,83.4,23.4
0.203719,453.9,44.4,2409.2,207.8,2911.7,688.3,456.9,2122.8,2629.9,212.9,83.4,23.8
0.205719,452.2,42.1,2382.9,191.5,2918.9,628.4,456.9,2123.7,2630.2,212.9,83.3,23.7
0.207719,450.2,40.6,2359.4,171.2,2917.9,550.7,457,2124.4,2630.5,213,83.1,22.9
0.209719,448.0,40.0,2338.7,150.6,2913.0,476.7,457,2125.1,2630.8,213,82.8,21.2
0.211719,446.0,40.4,2323.3,135.5,2909.2,432.0,457.1,2125.6,2631.1,213.1,82.4,19
0.213719,444.3,42.0,2312.0,127.8,2909.0,418.0,457.2,2126.1,2631.4,213.2,81.8,16.6
0.215719,443.3,46.1,2305.1,129.0,2913.0,433.7,457.3,2126.5,2631.6,213.3,81,14.5
0.217719,443.3,54.0,2304.8,144.9,2916.4,488.1,457.4,2126.8,2631.9,213.4,80,12.9
0.219719,443.7,66.9,2321.8,199.5,2904.3,644.5,457.5,2126.9,2632.1,213.5,78.9,11.4
0.221719,443.5,83.1,2404.6,323.3,2770.7,1085.4,457.6,2127,2632.3,213.7,77.7,10.1
0.223719,442.2,104.9,2262.7,1611.1,2554.7,249.7,457.7,2127,2632.5,213.9,76.6,9
0.225719,438.2,130.9,2131.0,1720.4,2602.9,185.7,457.9,2126.9,2632.7,214.1,75.7,8.3
0.227719,430.6,148.1,2221.7,1486.0,2628.7,216.2,458,2126.7,2632.9,214.4,75,8.1
0.229719,423.0,159.1,2301.2,1104.3,2671.0,299.5,458.2,2126.4,2633.1,214.7,74.6,8.6
0.231719,417.8,160.7,2317.8,861.4,2731.1,353.7,458.3,2126,2633.2,215,74.4,9.6
0.233719,413.5,150.8,2330.2,749.7,2778.9,355.5,458.5,2125.4,2633.4,215.3,74.4,10.6
0.235719,409.8,132.4,2365.8,697.4,2810.2,344.9,458.7,2124.8,2633.5,215.6,74.5,11.3
0.237719,408.8,113.1,2417.7,681.3,2833.6,347.2,458.9,2124.1,2633.6,216,74.7,11.2
0.239719,411.0,96.3,2468.6,707.1,2852.8,361.0,459.1,2123.2,2633.8,216.4,75,10.4
0.241719,413.6,83.9,2490.0,749.1,2865.6,369.7,459.3,2122.3,2633.9,216.8,75.3,9.2
0.243719,414.5,74.0,2471.1,754.7,2876.1,369.2,459.5,2121.3,2634,217.2,75.6,8.1
0.245719,413.3,67.0,2428.1,714.3,2878.8,367.5,459.7,2120.1,2634,217.6,75.8,7.6
0.247719,410.6,64.6,2393.3,673.2,2864.3,371.7,460,2118.8,2634.1,218,75.9,8
0.249719,406.8,66.6,2368.5,660.1,2833.2,369.2,460.2,2117.5,2634.2,218.4,76,9.3
0.251719,403.1,71.1,2339.5,654.3,2813.2,342.3,460.5,2116,2634.2,218.8,76,11.2
0.253719,400.6,76.2,2305.8,622.8,2819.6,307.9,460.7,2114.4,2634.3,219.3,75.9,13.2
0.255719,399.7,79.8,2279.6,579.1,2840.7,280.7,461,2112.7,2634.3,219.7,75.9,14.9
0.257719,400.0,79.8,2270.3,549.7,2860.5,264.9,461.3,2110.9,2634.3,220.1,76,16.1
0.259719,400.7,77.4,2285.2,543.1,2874.0,260.9,461.6,2109,2634.3,220.5,76.1,16.9
0.261719,400.7,75.5,2329.3,554.6,2879.7,271.9,461.9,2107,2634.3,221,76.2,17.6
0.263719,399.4,75.1,2396.2,561.0,2880.3,297.0,462.2,2104.9,2634.3,221.4,76.4,18.1
0.265719,396.4,75.8,2466.3,546.6,2876.2,331.0,462.5,2102.7,2634.3,221.8,76.5,18.6
0.267719,392.2,76.6,2516.1,526.0,2864.1,362.6,462.9,2100.4,2634.3,222.2,76.7,19.2
0.269719,386.9,76.6,2547.0,512.6,2841.3,386.5,463.2,2098,2634.3,222.5,76.8,19.9
0.271719,381.5,75.5,2558.1,512.7,2811.9,393.5,463.5,2095.4,2634.2,222.9,76.9,20.5
0.273719,375.9,73.9,2550.7,527.0,2781.2,379.8,463.9,2092.8,2634.2,223.3,77,21.1
0.275719,370.4,73.2,2528.5,538.2,2756.6,357.9,464.3,2090.1,2634.1,223.6,77.1,21.6
0.277719,365.9,74.2,2509.0,532.5,2738.4,349.6,464.7,2087.2,2634.1,224,77.2,22
0.279719,362.5,76.6,2500.6,519.7,2718.9,357.4,465,2084.3,2634,224.3,77.2,22.6
0.281719,360.4,79.7,2499.8,511.7,2697.8,371.7,465.4,2081.2,2633.9,224.6,77.3,23.1
0.283719,359.0,83.9,2487.2,513.0,2681.1,372.4,465.8,2078.1,2633.9,224.9,77.4,23.2
0.285719,359.1,89.1,2432.5,515.1,2679.7,340.6,466.3,2074.9,2633.8,225.2,77.6,22.8
0.287719,364.4,92.3,2337.2,477.3,2687.9,292.0,466.7,2071.6,2633.7,225.5,77.9,21.3
0.289719,380.3,87.0,2236.6,376.8,2694.4,252.2,467.1,2068.1,2633.6,225.8,78.5,18.4
0.291719,402.7,72.8,2176.3,271.9,2695.0,229.9,467.6,2064.6,2633.5,226.1,79.2,14.8
0.293719,422.5,56.3,2148.0,199.3,2687.2,208.0,468,2061,2633.4,226.3,80.1,11.3
0.295719,435.3,41.5,2134.4,157.1,2671.7,184.6,468.5,2057.3,2633.4,226.6,81.1,8.6
0.297719,441.5,31.1,2126.9,136.5,2655.8,168.0,468.9,2053.5,2633.3,226.8,82.1,7.6
0.299719,445.2,24.0,2120.2,126.3,2643.6,156.0,469.4,2049.6,2633.2,227,83,7.8
0.301719,448.0,19.9,2111.5,120.5,2638.4,145.2,469.9,2045.7,2633.1,227.2,83.8,8.9
0.303719,450.8,17.4,2099.2,113.7,2638.2,133.6,470.4,2041.6,2633,227.4,84.5,10.4
0.305719,453.7,15.8,2083.7,103.0,2639.7,123.2,470.9,2037.5,2632.8,227.6,85.1,11.8
0.307719,456.4,14.7,2069.5,89.9,2640.1,116.7,471.4,2033.3,2632.7,227.8,85.6,12.8
0.309719,459.1,13.6,2057.9,76.3,2637.9,114.2,471.9,2029,2632.6,227.9,85.9,13.9
0.311719,461.5,12.6,2049.6,66.1,2633.4,116.5,472.4,2024.6,2632.5,228,86.2,14.9
0.313719,463.6,11.8,2043.3,60.0,2628.3,125.1,472.9,2020.2,2632.4,228.1,86.4,15.9
0.315719,465.5,11.4,2038.2,58.4,2625.6,141.2,473.5,2015.7,2632.3,228.2,86.6,16.7
0.317719,467.0,11.5,2034.1,61.1,2627.8,161.2,474,2011.1,2632.2,228.2,86.7,17.2
0.319719,468.1,12.3,2029.4,67.6,2633.6,180.6,474.6,2006.4,2632.1,228.3,86.7,17.5
0.321719,468.9,13.9,2023.6,77.3,2637.7,195.1,475.1,2001.7,2632.1,228.3,86.6,17.6
0.323719,469.7,16.2,2014.9,90.5,2634.2,209.2,475.7,1996.9,2632,228.3,86.5,17.5
0.325719,470.2,19.4,2001.9,106.9,2620.3,227.5,476.3,1992,2631.9,228.3,86.2,17.3
0.327719,470.4,23.4,1986.5,122.5,2601.5,243.9,476.8,1987.1,2631.8,228.2,85.9,17
0.329719,470.4,29.3,1969.0,135.3,2583.4,252.2,477.4,1982.1,2631.7,228.1,85.5,16.4
0.331719,470.2,37.1,1952.5,143.6,2573.2,249.8,478,1977.1,2631.6,228.1,85,15.7
0.333719,470.5,47.5,1936.5,149.3,2572.9,240.6,478.6,1972,2631.6,227.9,84.5,15.1
0.335719,472.0,61.0,1919.0,154.8,2583.1,227.4,479.2,1966.8,2631.5,227.8,83.9,14.7
0.337719,475.5,75.6,1900.0,160.4,2599.7,211.3,479.8,1961.6,2631.5,227.7,83.3,14.8
0.339719,481.4,90.0,1878.0,165.4,2617.7,191.6,480.4,1956.4,2631.4,227.5,82.8,15.4
0.341719,489.1,100.4,1856.3,167.4,2631.3,174.3,481,1951.1,2631.4,227.4,82.4,16.3
0.343719,498.7,107.0,1835.3,164.6,2642.1,161.4,481.6,1945.8,2631.3,227.2,82.2,17.2
0.345719,510.3,111.1,1814.3,155.7,2653.4,151.8,482.2,1940.4,2631.3,227,82.1,17.7
0.347719,523.0,112.9,1796.6,143.3,2666.3,144.3,482.8,1935,2631.3,226.8,82.1,17.7
0.349719,537.7,113.8,1783.8,131.2,2681.3,136.3,483.5,1929.5,2631.3,226.6,82.1,17.2
0.351719,554.1,115.7,1777.8,122.8,2694.8,125.8,484.1,1924.1,2631.3,226.4,82.2,16.4
0.353719,572.2,117.3,1774.9,117.7,2704.6,114.5,484.7,1918.5,2631.3,226.2,82.4,15.5
0.355719,591.2,115.1,1771.0,114.7,2709.5,105.9,485.3,1913,2631.3,225.9,82.5,14.7
0.357719,607.8,107.7,1764.6,111.9,2710.4,100.5,486,1907.4,2631.3,225.7,82.7,14.1
0.359719,622.1,96.8,1755.8,107.4,2709.8,96.6,486.6,1901.8,2631.3,225.5,82.8,13.5
0.361719,632.2,86.8,1746.4,103.1,2709.2,95.7,487.2,1896.2,2631.4,225.2,83,12.9
0.363719,639.1,79.6,1737.3,100.6,2708.9,99.8,487.9,1890.6,2631.4,225,83.2,12.6
0.365719,643.9,75.9,1729.1,100.4,2708.7,110.4,488.5,1885,2631.5,224.8,83.3,12.6
0.367719,647.5,75.6,1723.2,100.9,2708.4,125.9,489.2,1879.3,2631.5,224.5,83.5,13.2
0.369719,650.8,77.4,1718.0,100.5,2708.9,147.5,489.8,1873.6,2631.6,224.3,83.6,14.6
0.371719,653.7,80.0,1711.2,98.3,2712.2,175.6,490.4,1868,2631.7,224,83.6,16.4
0.373719,656.5,83.0,1701.4,94.8,2722.2,213.9,491.1,1862.3,2631.8,223.8,83.6,18.2
0.375719,659.3,86.9,1689.7,91.6,2744.2,263.3,491.7,1856.6,2631.9,223.5,83.6,19.7
0.377719,661.9,91.4,1679.1,90.5,2776.9,307.9,492.4,1850.9,2632,223.3,83.6,20.4
0.379719,663.8,95.9,1668.6,91.1,2816.2,330.8,493,1845.2,2632.2,223,83.6,20.5
0.381719,664.5,98.9,1657.7,91.5,2846.7,319.6,493.7,1839.5,2632.3,222.8,83.6,20.3
0.383719,664.3,100.4,1645.8,90.0,2863.8,284.5,494.3,1833.9,2632.5,222.6,83.6,20
0.385719,663.8,100.5,1633.6,86.3,2871.6,240.3,494.9,1828.2,2632.6,222.4,83.6,19.7
0.387719,663.5,100.1,1623.8,82.3,2875.6,202.8,495.6,1822.6,2632.8,222.1,83.6,19.6
0.389719,663.5,99.9,1616.3,78.3,2879.7,176.6,496.2,1816.9,2633,221.9,83.7,19.5
0.391719,663.8,99.7,1610.4,74.0,2885.3,166.7,496.8,1811.3,2633.2,221.8,83.7,19.5
0.393719,664.3,99.3,1604.1,69.6,2893.1,172.0,497.4,1805.7,2633.4,221.6,83.8,19.5
0.395719,665.5,99.6,1596.7,65.5,2903.1,192.6,498.1,1800.1,2633.6,221.4,83.9,19.6
0.397719,667.0,101.4,1589.8,62.5,2914.5,226.8,498.7,1794.6,2633.8,221.3,84,19.9
0.399719,668.3,103.8,1583.4,60.1,2928.9,277.2,499.3,1789.1,2634.1,221.1,84.1,20.5
0.401719,668.7,104.2,1577.5,57.4,2946.4,329.7,499.9,1783.6,2634.3,221,84.1,21.3
0.403719,668.2,101.7,1571.4,53.3,2965.5,361.9,500.5,1778.1,2634.6,220.9,84.2,21.9
0.405719,667.1,96.9,1564.6,48.0,2979.8,354.9,501.1,1772.6,2634.9,220.8,84.3,22.4
0.407719,666.2,92.2,1558.5,43.1,2986.7,319.6,501.7,1767.2,2635.2,220.8,84.3,22.5
0.409719,665.5,88.2,1553.1,39.6,2993.0,278.4,502.3,1761.9,2635.4,220.7,84.4,22.2
0.411719,664.6,85.2,1549.2,38.3,3001.6,250.9,502.9,1756.6,2635.7,220.7,84.4,21.8
0.413719,663.2,82.1,1547.1,39.2,3012.8,240.3,503.5,1751.3,2636.1,220.7,84.3,21.2
0.415719,661.4,78.0,1546.8,42.5,3027.2,244.2,504.1,1746,2636.4,220.7,84.3,20.6
0.417719,659.9,72.8,1547.9,47.5,3043.9,254.6,504.6,1740.9,2636.7,220.8,84.2,20
0.419719,658.8,67.0,1550.0,54.3,2940.5,2523.9,505.2,1735.7,2637,220.8,84.1,19.3
0.421719,657.6,62.5,1552.3,62.7,2844.4,2470.2,505.7,1730.6,2637.4,220.9,83.9,18.6
0.423719,656.3,60.3,1555.0,73.7,2824.5,2505.6,506.3,1725.6,2637.7,221,83.8,17.8
0.425719,654.7,61.4,1559.1,89.5,2880.7,2681.3,506.8,1720.6,2638.1,221.2,83.5,17.1
0.427719,653.2,65.5,1565.0,109.5,2982.4,2906.8,507.4,1715.7,2638.5,221.3,83.2,16.4
0.429719,651.0,72.1,1572.8,134.2,3016.5,2870.1,507.9,1710.8,2638.8,221.5,82.8,15.8
0.431719,647.4,80.5,1581.5,159.6,2777.6,2429.2,508.4,1706,2639.2,221.7,82.3,15.2
0.433719,641.4,91.3,1590.9,186.6,2420.8,2026.5,508.9,1701.2,2639.6,221.9,81.7,14.6
0.435719,631.3,106.6,1599.5,220.2,2173.1,1659.3,509.4,1696.5,2640,222.1,81,13.8
0.437719,616.0,127.0,1602.5,262.2,2057.9,1349.1,509.9,1691.9,2640.4,222.4,80.3,12.9
0.439719,592.1,156.1,1591.3,313.6,2033.4,1065.8,510.4,1687.3,2640.8,222.6,79.6,11.4
0.441719,560.3,193.0,1565.2,352.3,2060.3,841.7,510.8,1682.8,2641.2,222.9,78.9,9.8
0.443719,521.7,238.5,1540.4,381.2,2089.7,684.8,511.3,1678.4,2641.6,223.2,78.5,8.4
0.445719,481.2,293.1,1528.7,432.9,2101.1,588.2,511.7,1674,2642,223.5,78.2,7.5
0.447719,449.4,354.0,1538.4,521.6,2095.1,561.5,512.2,1669.7,2642.4,223.8,78.2,7.6
0.449719,425.0,438.5,1582.8,642.1,2072.9,630.4,512.6,1665.5,2642.8,224.2,78.3,8.4
0.451719,402.6,559.7,1673.7,731.9,2023.1,846.8,513,1661.3,2643.3,224.5,78.5,9.9
0.453719,368.9,734.3,1763.8,642.5,1982.7,1395.6,513.4,1657.3,2643.7,224.8,78.8,11.6
0.455719,304.9,963.6,1779.9,587.8,1996.8,2187.1,513.8,1653.3,2644.1,225.1,79,13.3
0.457719,235.0,1111.2,1793.0,595.2,1932.6,2742.0,514.2,1649.3,2644.5,225.5,79.1,14.9
0.459719,267.8,1004.8,1805.3,635.3,2018.2,2193.7,514.6,1645.5,2644.9,225.8,79.3,16.8
0.461719,312.6,822.4,1794.5,713.4,2045.5,1413.1,514.9,1641.7,2645.3,226.1,79.4,18.7
0.463719,330.9,683.8,1725.2,744.1,2093.1,959.1,515.2,1638,2645.7,226.4,79.5,20.5
0.465719,333.8,596.1,1678.0,675.1,2124.8,780.2,515.6,1634.4,2646.1,226.7,79.6,22.2
0.467719,329.1,555.2,1659.0,611.7,2140.8,711.7,515.9,1630.9,2646.5,226.9,79.7,23.4
0.469719,320.2,546.1,1648.5,561.0,2157.3,684.3,516.2,1627.5,2646.9,227.2,79.8,24.4
0.471719,309.6,561.0,1642.2,532.9,2171.6,679.1,516.5,1624.1,2647.3,227.4,79.9,25.2
0.473719,298.5,590.3,1640.7,532.3,2178.6,697.5,516.8,1620.8,2647.6,227.7,80,25.9
0.475719,288.3,625.1,1645.2,564.3,2172.1,744.2,517,1617.6,2648,227.9,80.1,26.3
0.477719,281.2,654.9,1651.9,624.4,2147.0,793.4,517.3,1614.5,2648.4,228.1,80.2,26.7
0.479719,277.0,672.9,1645.1,699.2,2110.1,785.4,517.5,1611.4,2648.7,228.2,80.3,26.8
0.481719,277.6,664.9,1606.7,726.0,2095.2,698.5,517.7,1608.5,2649,228.4,80.4,26.8
0.483719,282.4,633.4,1559.3,680.0,2097.1,598.6,518,1605.6,2649.4,228.5,80.5,26.7
0.485719,287.4,595.1,1526.7,612.3,2096.5,522.6,518.2,1602.8,2649.7,228.7,80.6,26.7
0.487719,290.2,563.4,1513.3,564.9,2091.6,481.4,518.3,1600.1,2650,228.8,80.7,26.7
0.489719,292.9,530.4,1512.1,534.5,2086.3,458.7,518.5,1597.5,2650.3,228.8,80.8,26.6
0.491719,297.4,489.8,1516.6,511.7,2084.8,440.8,518.6,1595,2650.5,228.9,80.8,26.6
0.493719,303.1,444.0,1523.1,492.0,2087.6,422.4,518.8,1592.5,2650.8,228.9,80.8,26.7
0.495719,308.6,401.1,1530.0,478.6,2093.8,405.1,518.9,1590.1,2651,229,80.8,26.7
0.497719,313.2,367.4,1532.3,471.5,2100.0,385.5,519,1587.9,2651.2,229,80.7,26.9
0.499719,317.1,339.9,1527.1,466.2,2103.8,359.8,519.1,1585.7,2651.4,228.9,80.7,27.7
0.501719,320.2,319.6,1515.4,456.0,2105.0,332.1,519.2,1583.5,2651.6,228.9,80.6,28.6
0.503719,323.5,303.7,1499.4,436.3,2104.8,304.1,519.2,1581.5,2651.8,228.9,80.6,29.1
0.505719,331.1,290.7,1482.2,414.0,2102.9,282.3,519.3,1579.6,2651.9,228.8,80.5,28.7
0.507719,348.5,278.2,1471.0,405.1,2098.9,279.2,519.3,1577.7,2652.1,228.7,80.5,26.8
0.509719,380.3,257.1,1472.9,412.4,2092.7,305.0,519.3,1575.9,2652.1,228.6,80.5,23
0.511719,416.9,226.2,1491.8,417.1,2087.4,365.1,519.3,1574.2,2652.2,228.5,80.5,18.2
0.513719,448.7,193.3,1519.4,394.1,2088.2,462.4,519.3,1572.6,2652.3,228.4,80.6,13.4
0.515719,471.9,170.0,1541.4,340.5,2103.0,594.2,519.3,1571,2652.3,228.3,80.6,9.7
