time,f1,b1,f2,b2,f3,b3,f1p,f2p,f3p,f0,intensity,harmonicity
0.025135,516.6,209.2,1817.3,400.7,2756.0,219.3,396.4,1857.9,2801.5,117,68.1,1
0.027135,515.3,158.8,1812.9,428.9,2758.5,236.8,396.4,1857.7,2801.4,116.7,69.7,14.6
0.029135,519.3,135.0,1820.7,464.4,2747.3,265.8,396.6,1857.4,2801.3,116.4,71,17.4
0.031135,525.7,132.1,1850.4,460.1,2738.6,275.0,396.7,1857,2801.1,116.1,72.1,13.8
0.033135,529.3,143.3,1902.6,433.2,2744.7,272.4,397,1856.5,2800.8,115.8,73.2,8.4
0.035135,530.0,153.4,1975.1,377.1,2760.5,272.2,397.2,1855.8,2800.5,115.5,74.2,5.6
0.037135,532.1,142.7,2048.9,283.6,2782.7,269.9,397.5,1855,2800.2,115.2,75.2,5.2
0.039135,535.2,110.9,2090.3,213.9,2806.0,246.5,397.9,1854.1,2799.8,114.8,76.1,4.3
0.041135,538.8,78.6,2104.0,185.6,2821.2,211.8,398.3,1853.1,2799.3,114.5,76.9,3.1
0.043135,542.0,60.6,2101.5,175.5,2817.8,179.1,398.8,1852,2798.8,114.2,77.6,2
0.045135,544.7,55.8,2089.6,173.8,2796.1,142.2,399.3,1850.8,2798.2,113.9,78.1,1.5
0.047135,548.5,60.0,2064.3,201.4,2773.6,101.5,399.9,1849.4,2797.6,113.6,78.6,1.7
0.049135,553.0,71.0,2019.1,258.3,2763.4,77.1,400.5,1848,2796.9,113.3,78.9,2.3
0.051135,556.1,85.9,1961.9,299.4,2761.8,63.6,401.1,1846.4,2796.2,113.1,79.1,3
0.053135,553.6,97.2,1914.2,297.1,2764.8,55.9,401.8,1844.7,2795.4,112.8,79.3,3.8
0.055135,546.4,99.8,1884.6,259.0,2768.6,54.1,402.6,1842.9,2794.5,112.5,79.4,4.5
0.057135,538.9,96.5,1873.6,208.5,2769.2,62.2,403.4,1841,2793.7,112.3,79.5,5
0.059135,533.0,90.5,1872.1,176.2,2765.5,76.8,404.2,1838.9,2792.7,112.1,79.6,5.4
0.061135,526.2,82.3,1873.8,161.0,2762.4,88.2,405.1,1836.8,2791.7,111.9,79.7,5.8
0.063135,519.2,74.4,1882.4,154.6,2762.6,95.1,406,1834.5,2790.7,111.7,79.7,6.2
0.065135,514.4,70.3,1901.3,145.9,2763.7,107.5,407,1832.2,2789.6,111.5,79.7,6.9
0.067135,510.9,69.8,1918.4,132.2,2763.2,141.1,408,1829.7,2788.4,111.3,79.7,8
0.069135,505.6,70.9,1921.4,125.3,2762.7,183.9,409,1827.2,2787.2,111.1,79.7,9.5
0.071135,498.3,73.8,1920.2,123.2,2754.3,193.2,410.1,1824.5,2786,111,79.6,10.9
0.073135,492.7,80.6,1921.2,132.6,2739.9,166.6,411.3,1821.7,2784.7,110.9,79.6,12
0.075135,489.4,95.4,1925.9,166.7,2730.2,144.4,412.4,1818.9,2783.3,110.7,79.5,12.3
0.077135,485.2,125.7,1929.7,207.2,2726.7,133.4,413.6,1815.9,2781.9,110.6,79.4,11.5
0.079135,472.8,154.1,1923.6,224.0,2728.2,126.4,414.9,1812.8,2780.5,110.5,79.3,9.8
0.081135,452.8,156.4,1910.2,229.1,2729.1,120.9,416.2,1809.7,2779,110.4,79.1,7.8
0.083135,433.3,141.2,1893.2,243.0,2721.8,119.1,417.5,1806.4,2777.4,110.3,78.9,6
0.085135,414.5,131.1,1867.9,274.2,2698.4,121.1,418.9,1803.1,2775.8,110.2,78.8,4.7
0.087135,388.7,132.4,1826.1,275.0,2669.4,118.2,420.3,1799.6,2774.2,110.1,78.9,4
0.089135,360.2,124.2,1792.2,226.2,2658.7,113.1,421.7,1796.1,2772.5,110,79,3.5
0.091135,343.5,103.9,1772.5,183.1,2667.8,110.8,423.1,1792.5,2770.8,110,79.3,3.3
0.093135,340.8,92.3,1759.5,163.2,2689.8,105.6,424.6,1788.8,2769,109.9,79.6,3.6
0.095135,347.5,91.3,1748.5,159.0,2708.1,97.6,426.2,1785,2767.2,109.8,79.9,4.4
0.097135,355.5,90.0,1740.2,158.0,2718.6,92.9,427.7,1781.1,2765.3,109.8,80.1,6.2
0.099135,355.5,82.5,1738.0,156.1,2725.3,93.1,429.3,1777.2,2763.4,109.7,80.3,8.8
0.101135,351.2,73.3,1744.6,159.3,2729.8,99.5,430.9,1773.2,2761.5,109.6,80.4,11.8
0.103135,349.3,67.3,1760.8,175.1,2730.2,115.4,432.5,1769.1,2759.5,109.6,80.5,14.5
0.105135,350.5,63.6,1778.3,203.1,2729.7,136.8,434.2,1764.9,2757.5,109.5,80.6,16.4
0.107135,348.2,58.7,1784.1,233.5,2737.8,157.7,435.9,1760.7,2755.4,109.4,80.6,17.2
0.109135,340.8,53.7,1779.5,246.1,2753.8,165.9,437.6,1756.4,2753.3,109.4,80.7,17.5
0.111135,334.9,52.0,1773.9,225.1,2766.3,160.3,439.3,1752,2751.1,109.3,80.8,17.4
0.113135,334.9,54.5,1765.8,184.5,2770.1,156.5,441.1,1747.5,2748.9,109.2,80.9,17.2
0.115135,337.6,56.5,1755.9,150.9,2772.5,154.1,442.9,1743,2746.7,109.2,81,17.2
0.117135,335.7,52.1,1746.6,125.7,2780.6,148.8,444.7,1738.5,2744.4,109.1,81,17.4
0.119135,330.0,45.1,1740.6,104.6,2793.9,137.0,446.5,1733.8,2742.1,109,81.1,17.6
0.121135,326.3,40.9,1737.0,82.7,2808.6,117.1,448.3,1729.2,2739.8,109,81.2,17.8
0.123135,327.1,40.8,1733.8,63.6,2817.8,97.8,450.1,1724.4,2737.4,108.9,81.2,18.1
0.125135,328.2,40.7,1731.3,49.9,2818.4,86.3,452,1719.6,2735,108.9,81.2,18.3
0.127135,324.8,37.7,1729.7,39.8,2811.7,81.2,453.9,1714.8,2732.6,108.8,81.3,18.6
0.129135,320.3,34.8,1727.8,33.1,2800.1,78.5,455.7,1709.9,2730.1,108.8,81.3,19
0.131135,319.1,35.0,1724.1,29.1,2790.5,73.5,457.6,1705,2727.6,108.8,81.3,19.3
0.133135,321.6,37.2,1718.8,27.1,2787.3,68.6,459.5,1700.1,2725,108.7,81.3,19.6
0.135135,322.2,36.1,1713.8,26.2,2786.1,68.0,461.5,1695.1,2722.5,108.7,81.3,19.6
0.137135,318.9,31.9,1710.0,26.5,2780.9,74.0,463.4,1690,2719.9,108.7,81.4,19.3
0.139135,316.5,29.4,1707.5,28.6,2771.5,81.6,465.3,1685,2717.2,108.7,81.4,18.7
0.141135,317.6,30.5,1703.8,31.8,2766.2,83.6,467.2,1679.9,2714.6,108.8,81.4,18.1
0.143135,319.7,32.4,1697.8,34.0,2769.0,82.4,469.1,1674.8,2711.9,108.8,81.4,17.5
0.145135,318.1,32.4,1692.0,35.1,2776.3,81.4,471.1,1669.6,2709.2,108.9,81.4,17.1
0.147135,314.2,32.6,1690.6,38.1,2780.4,82.2,473,1664.4,2706.4,108.9,81.4,16.9
0.149135,313.0,35.7,1694.6,46.2,2772.1,86.3,474.9,1659.3,2703.7,109,81.3,16.9
0.151135,315.5,40.7,1700.5,60.9,2756.8,86.8,476.9,1654.1,2700.9,109.1,81.3,16.9
0.153135,317.7,43.6,1702.0,80.7,2748.8,79.9,478.8,1648.8,2698.1,109.2,81.3,16.9
0.155135,316.0,44.0,1693.1,104.3,2747.3,70.6,480.7,1643.6,2695.2,109.4,81.3,16.6
0.157135,313.0,45.6,1669.0,133.9,2743.1,62.7,482.6,1638.4,2692.4,109.5,81.3,16
0.159135,312.9,51.3,1636.4,153.9,2736.5,57.8,484.5,1633.1,2689.5,109.6,81.3,15.2
0.161135,315.9,58.4,1611.6,149.2,2732.5,56.2,486.4,1627.9,2686.6,109.8,81.4,14.3
0.163135,318.0,63.0,1601.3,133.5,2729.5,62.4,488.3,1622.6,2683.7,109.9,81.4,13.3
0.165135,319.7,70.8,1599.2,121.6,2720.4,83.4,490.2,1617.4,2680.8,110.1,81.6,12.3
0.167135,328.9,86.4,1597.7,111.1,2697.9,116.3,492,1612.1,2677.8,110.3,81.8,11.3
0.169135,349.0,96.1,1595.5,98.1,2676.0,128.2,493.9,1606.9,2674.9,110.5,82.1,10.3
0.171135,370.5,92.0,1594.7,86.6,2665.3,121.8,495.7,1601.7,2671.9,110.6,82.4,9.2
0.173135,385.2,89.6,1596.1,85.3,2656.6,116.2,497.5,1596.5,2668.9,110.8,82.7,8.2
0.175135,401.0,99.8,1599.4,98.0,2645.4,115.3,499.3,1591.3,2665.9,111,83.2,7.3
0.177135,428.1,111.0,1602.1,117.0,2640.2,113.2,501.1,1586.1,2662.9,111.2,83.6,6.5
0.179135,456.8,100.7,1601.0,126.9,2643.6,107.4,502.9,1581,2659.9,111.4,84,5.7
0.181135,477.3,80.6,1596.0,130.5,2652.0,98.9,504.6,1575.8,2656.8,111.5,84.4,5.1
0.183135,493.5,66.5,1588.3,138.4,2661.0,88.7,506.3,1570.7,2653.8,111.7,84.7,4.7
0.185135,510.8,59.9,1577.6,155.4,2665.4,79.8,508,1565.7,2650.7,111.9,85,4.7
0.187135,528.3,56.5,1560.7,178.3,2665.6,75.1,509.7,1560.6,2647.7,112,85.1,5.4
0.189135,538.0,53.2,1539.0,198.5,2666.2,73.7,511.3,1555.6,2644.6,112.2,85.2,6.5
0.191135,540.6,49.3,1512.9,225.0,2667.3,76.0,512.9,1550.7,2641.5,112.4,85.4,7.9
0.193135,542.7,45.7,1486.8,272.9,2663.6,86.4,514.5,1545.7,2638.4,112.5,85.5,9.3
0.195135,548.0,42.8,1467.6,350.9,2652.2,107.4,516,1540.9,2635.3,112.7,85.6,10.4
0.197135,553.6,39.4,1453.3,434.7,2640.7,129.8,517.6,1536,2632.3,112.8,85.8,11.3
0.199135,555.1,36.2,1429.8,462.5,2639.7,144.0,519.1,1531.2,2629.2,112.9,85.9,12.2
0.201135,554.6,34.0,1395.9,415.4,2644.6,158.9,520.5,1526.5,2626.1,113.1,86.1,13
0.203135,555.7,33.1,1370.4,341.6,2646.2,181.5,521.9,1521.8,2623,113.2,86.2,13.7
0.205135,559.0,33.4,1356.7,296.0,2641.4,196.9,523.3,1517.2,2619.9,113.4,86.2,14.3
0.207135,561.7,33.8,1342.6,282.3,2642.4,194.4,524.7,1512.6,2616.8,113.5,86.3,14.8
0.209135,561.8,33.8,1321.6,283.2,2652.2,186.6,526,1508.1,2613.8,113.7,86.3,15.3
0.211135,561.4,34.6,1295.7,280.1,2663.1,184.1,527.3,1503.6,2610.7,113.8,86.3,15.7
0.213135,562.1,36.2,1272.3,267.4,2665.1,201.5,528.5,1499.2,2607.6,113.9,86.2,15.9
0.215135,562.8,36.7,1252.8,251.5,2654.7,247.0,529.7,1494.9,2604.6,114.1,86.1,16.1
0.217135,562.0,35.6,1238.1,241.4,2641.0,323.2,530.9,1490.7,2601.5,114.3,86.1,16.3
0.219135,561.6,35.4,1237.1,254.4,2637.1,454.8,532,1486.5,2598.4,114.4,86,16.3
0.221135,563.1,37.9,1252.6,306.0,2616.3,709.9,533.1,1482.4,2595.4,114.6,85.9,16.3
0.223135,565.2,40.7,1269.5,387.5,2532.0,905.3,534.1,1478.4,2592.4,114.7,85.8,16.1
0.225135,565.3,41.4,1256.3,451.4,2472.5,879.7,535.1,1474.4,2589.4,114.9,85.8,15.8
0.227135,563.5,40.5,1202.4,436.1,2463.3,663.8,536,1470.6,2586.4,115.1,85.8,15.3
0.229135,562.9,40.8,1151.7,375.3,2479.6,465.0,536.9,1466.8,2583.4,115.3,85.8,14.7
0.231135,564.0,44.8,1121.2,350.4,2504.4,378.9,537.8,1463.1,2580.4,115.5,85.8,13.9
0.233135,564.3,51.4,1102.1,370.8,2534.3,378.0,538.6,1459.5,2577.4,115.7,85.8,13.2
0.235135,563.8,56.7,1089.3,408.4,2568.1,415.2,539.3,1456,2574.5,115.9,85.8,12.8
0.237135,565.2,61.0,1081.2,428.0,2589.7,442.9,540,1452.5,2571.5,116.1,85.8,12.6
0.239135,568.3,66.4,1067.5,394.5,2568.4,425.9,540.7,1449.2,2568.6,116.3,85.7,12.6
0.241135,568.4,73.9,1043.6,340.8,2535.4,394.9,541.3,1446,2565.7,116.5,85.7,12.7
0.243135,562.8,82.3,1017.7,305.0,2512.0,383.7,541.8,1442.8,2562.8,116.7,85.6,12.8
0.245135,556.1,92.5,996.7,291.8,2483.2,384.3,542.3,1439.8,2560,116.9,85.4,12.7
0.247135,552.5,109.3,982.3,284.4,2443.1,369.5,542.8,1436.8,2557.1,117.2,85.3,12.4
0.249135,548.8,132.2,974.6,266.4,2423.2,351.9,543.2,1434,2554.3,117.4,85.1,11.9
0.251135,539.3,158.7,971.4,253.1,2434.4,358.9,543.6,1431.3,2551.5,117.6,85,11.4
0.253135,527.2,186.3,971.6,266.8,2461.9,383.9,543.9,1428.6,2548.7,117.9,84.8,11
0.255135,520.3,224.3,970.6,319.9,2479.1,402.5,544.1,1426.1,2546,118.1,84.6,10.8
0.257135,515.9,288.0,959.6,386.6,2474.1,404.2,544.3,1423.7,2543.3,118.4,84.4,10.9
0.259135,496.4,358.5,950.5,382.6,2465.7,390.6,544.4,1421.4,2540.6,118.7,84.2,11.3
0.261135,463.1,389.6,963.5,339.6,2467.1,363.0,544.5,1419.2,2537.9,118.9,84.1,11.9
0.263135,442.4,390.1,986.3,337.5,2472.0,325.3,544.5,1417.1,2535.3,119.2,83.9,12.3
0.265135,438.3,388.5,1009.3,404.7,2476.7,299.0,544.5,1415.1,2532.7,119.5,83.8,12.6
0.267135,444.3,380.7,1029.3,560.4,2487.9,309.0,544.4,1413.3,2530.1,119.8,83.6,12.7
0.269135,461.2,376.6,1039.5,830.8,2504.0,352.9,544.3,1411.5,2527.5,120.1,83.5,12.8
0.271135,500.6,375.8,1111.6,1420.9,2521.3,400.3,544.1,1409.9,2525,120.4,83.3,12.8
0.273135,541.0,344.6,1511.7,1667.6,2542.6,404.4,543.9,1408.4,2522.5,120.8,83.1,12.6
0.275135,555.5,326.2,1651.2,1449.4,2556.4,360.3,543.6,1407,2520,121.1,82.8,12.3
0.277135,553.6,346.5,1638.2,1346.7,2558.9,331.6,543.2,1405.8,2517.6,121.5,82.6,11.6
0.279135,557.5,396.1,1616.2,1284.6,2560.8,334.9,542.8,1404.6,2515.2,121.9,82.3,10.5
0.281135,596.5,439.2,1645.5,1139.9,2568.3,324.5,542.3,1403.6,2512.9,122.2,82.1,9.4
0.283135,642.3,436.3,1687.9,1000.6,2586.6,299.0,541.8,1402.7,2510.5,122.6,81.9,8.4
0.285135,656.6,429.8,1712.3,954.7,2614.7,285.6,541.3,1401.9,2508.2,123,81.8,7.8
0.287135,663.8,426.5,1737.4,988.5,2651.0,286.0,540.6,1401.3,2506,123.5,81.7,7.6
0.289135,689.4,402.0,1779.1,1053.9,2676.7,293.4,539.9,1400.8,2503.8,123.9,81.7,7.6
0.291135,715.2,376.0,1831.2,1145.6,2681.4,317.4,539.2,1400.4,2501.6,124.3,81.8,7.8
0.293135,722.3,398.2,1872.8,1295.4,2658.2,360.2,538.4,1400.1,2499.5,124.8,81.8,8.2
0.295135,706.9,515.8,1848.2,1475.9,2610.6,377.7,537.6,1400,2497.4,125.2,81.9,8.7
0.297135,635.6,821.3,1665.6,1506.7,2571.8,337.9,536.7,1400,2495.3,125.7,82,9.3
0.299135,429.4,1205.2,1487.9,1274.4,2554.3,301.6,535.7,1400.1,2493.3,126.1,82,10.2
0.301135,619.7,1244.4,1464.9,1259.9,2544.7,301.5,534.7,1400.3,2491.3,126.6,82.2,11.2
0.303135,796.1,838.1,1619.5,1380.8,2541.1,331.8,533.7,1400.7,2489.4,127,82.3,12.1
0.305135,824.4,622.5,1779.0,1293.2,2550.6,360.8,532.5,1401.2,2487.5,127.4,82.5,13
0.307135,814.2,573.2,1831.0,1245.6,2562.9,355.7,531.4,1401.8,2485.6,127.9,82.6,13.9
0.309135,782.8,616.5,1798.0,1300.1,2563.8,309.2,530.2,1402.5,2483.8,128.3,82.8,14.8
0.311135,750.8,671.9,1745.4,1348.2,2563.8,250.0,528.9,1403.4,2482,128.8,83,15.7
0.313135,738.4,698.2,1715.3,1382.3,2566.3,213.6,527.6,1404.4,2480.3,129.2,83.1,16.4
0.315135,734.1,714.1,1699.4,1431.9,2567.0,203.2,526.2,1405.6,2478.6,129.6,83.3,16.9
0.317135,733.4,704.4,1720.6,1473.6,2561.8,208.6,524.8,1406.8,2477,130,83.3,16.9
0.319135,752.5,640.2,1787.6,1457.4,2556.0,213.5,523.4,1408.2,2475.4,130.4,83.4,16.7
0.321135,783.6,565.2,1835.0,1418.3,2556.0,208.3,521.9,1409.7,2473.9,130.8,83.3,16.4
0.323135,810.6,528.7,1815.0,1443.8,2557.1,196.3,520.3,1411.4,2472.4,131.2,83.3,16
0.325135,836.3,525.7,1737.0,1520.8,2552.8,182.0,518.7,1413.1,2470.9,131.5,83.1,15.8
0.327135,867.5,503.5,1666.2,1557.7,2544.5,164.9,517.1,1415,2469.5,131.9,83,15.7
0.329135,887.9,460.5,1644.0,1535.9,2543.4,145.6,515.4,1417.1,2468.2,132.2,82.9,15.6
0.331135,893.1,449.4,1627.0,1522.7,2552.7,124.6,513.7,1419.2,2466.8,132.6,82.8,15.5
0.333135,887.3,486.6,1613.7,1537.6,2564.4,104.1,511.9,1421.5,2465.6,132.9,82.8,15.5
0.335135,875.3,552.3,1623.1,1551.3,2571.8,88.3,510.1,1423.9,2464.4,133.3,82.8,15.6
0.337135,860.4,641.8,1612.3,1575.5,2574.1,78.9,508.2,1426.4,2463.2,133.6,82.8,15.7
0.339135,830.9,779.2,1548.3,1573.1,2570.9,77.3,506.3,1429,2462.1,133.9,82.9,15.9
0.341135,726.5,970.7,1518.8,1399.7,2560.2,82.3,504.4,1431.8,2461,134.2,83,16.1
0.343135,488.6,1056.7,1584.5,1159.1,2544.5,86.7,502.4,1434.7,2460,134.5,83.1,16.3
0.345135,262.2,532.2,1664.1,994.4,2533.6,84.7,500.4,1437.6,2459.1,134.9,83.2,16.5
0.347135,273.3,312.9,1733.0,931.4,2529.1,81.1,498.4,1440.8,2458.1,135.2,83.4,16.5
0.349135,271.4,240.7,1766.0,973.1,2524.4,78.4,496.3,1444,2457.3,135.5,83.5,16.3
0.351135,269.1,218.7,1730.2,1076.9,2517.5,74.1,494.2,1447.3,2456.5,135.8,83.5,16.2
0.353135,266.1,206.0,1615.0,1092.2,2510.5,68.0,492,1450.8,2455.7,136.1,83.6,16.2
0.355135,262.6,191.0,1522.0,953.0,2502.2,62.5,489.8,1454.4,2455,136.4,83.6,16.4
0.357135,259.5,185.0,1480.4,810.3,2489.5,57.0,487.6,1458,2454.3,136.7,83.5,16.8
0.359135,257.7,192.9,1449.7,733.8,2475.7,50.5,485.4,1461.8,2453.7,137,83.4,17.6
0.361135,257.0,202.7,1413.7,710.7,2465.6,45.9,483.1,1465.7,2453.2,137.4,83.3,18.4
0.363135,257.7,203.0,1385.1,735.3,2457.5,46.7,480.8,1469.7,2452.7,137.7,83.3,19
0.365135,259.5,190.9,1367.1,801.7,2448.0,52.6,478.5,1473.9,2452.2,138,83.2,19.4
0.367135,259.2,168.2,1339.3,875.5,2437.9,58.3,476.2,1478.1,2451.8,138.3,83.2,19.7
0.369135,255.3,146.4,1297.2,885.5,2433.4,57.8,473.8,1482.4,2451.5,138.6,83.1,20
0.371135,249.5,131.8,1260.6,801.9,2434.0,54.0,471.4,1486.8,2451.2,139,83,20
0.373135,243.7,130.9,1248.5,672.4,2434.8,52.5,469,1491.3,2450.9,139.3,82.9,19.5
0.375135,240.1,154.6,1274.0,582.6,2432.9,58.6,466.6,1495.9,2450.7,139.6,82.9,18.4
0.377135,241.8,207.7,1353.4,529.2,2427.4,81.1,464.1,1500.7,2450.6,139.9,82.8,15.9
0.379135,255.7,254.9,1436.9,432.3,2422.0,110.7,461.7,1505.5,2450.5,140.2,82.8,12.4
0.381135,291.8,262.3,1477.0,316.9,2418.5,123.1,459.2,1510.4,2450.4,140.6,83,8.6
0.383135,342.0,226.3,1486.2,236.6,2415.4,123.3,456.7,1515.3,2450.4,140.9,83.2,5.3
0.385135,384.8,171.5,1485.1,187.6,2411.3,125.2,454.2,1520.4,2450.5,141.2,83.5,3.1
0.387135,412.7,125.5,1486.0,158.6,2403.3,131.6,451.7,1525.6,2450.6,141.5,83.8,2.4
0.389135,427.2,103.3,1497.7,146.7,2391.6,128.8,449.1,1530.8,2450.8,141.7,84.2,2.8
0.391135,434.8,100.9,1525.0,143.2,2385.4,105.6,446.6,1536.1,2451,142,84.4,3.6
0.393135,437.5,109.1,1558.6,134.5,2385.0,79.0,444.1,1541.6,2451.2,142.3,84.6,4.6
0.395135,436.1,114.2,1583.8,118.5,2384.0,64.5,441.5,1547,2451.6,142.5,84.7,5.2
0.397135,432.0,113.1,1600.5,106.5,2378.6,65.4,438.9,1552.6,2451.9,142.8,84.7,5.5
0.399135,425.4,110.6,1610.9,104.6,2366.5,83.4,436.4,1558.2,2452.3,143,84.6,5.8
0.401135,415.9,108.6,1615.5,108.8,2345.0,114.3,433.8,1563.9,2452.8,143.2,84.4,6.1
0.403135,406.0,105.5,1614.8,116.5,2317.2,145.4,431.3,1569.7,2453.3,143.4,84,6.2
0.405135,397.3,103.1,1610.6,130.9,2291.4,175.2,428.7,1575.5,2453.9,143.6,83.6,6.2
0.407135,384.5,110.0,1606.0,161.6,2273.4,216.6,426.2,1581.4,2454.5,143.8,83,5.8
0.409135,356.9,136.3,1604.0,218.4,2267.3,284.4,423.6,1587.4,2455.1,143.9,82.4,5.3
0.411135,301.9,182.4,1599.9,301.1,2269.4,408.1,421,1593.4,2455.9,144.1,81.8,4.6
0.413135,238.0,216.1,1582.2,335.9,2289.1,570.7,418.5,1599.5,2456.6,144.2,81.3,4
0.415135,202.9,229.3,1565.4,287.5,2437.2,914.7,416,1605.6,2457.4,144.3,80.9,3.8
0.417135,195.4,254.0,1569.1,264.4,2511.2,1523.8,413.5,1611.8,2458.3,144.4,80.7,3.8
0.419135,213.7,270.2,1601.8,309.0,2531.3,1577.8,410.9,1618,2459.2,144.4,80.5,4.2
0.421135,257.7,240.6,1657.1,304.3,2609.7,200.8,408.4,1624.3,2460.1,144.5,80.5,4.6
0.423135,303.0,181.8,1685.0,208.0,2587.2,206.2,406,1630.6,2461.1,144.5,80.8,5
0.425135,337.7,138.8,1694.3,133.4,2561.1,192.6,403.5,1637,2462.1,144.5,81.2,5.3
0.427135,362.1,110.6,1701.1,97.5,2549.1,170.1,401,1643.4,2463.2,144.4,81.8,5.3
0.429135,375.7,92.8,1708.3,84.9,2545.5,160.3,398.6,1649.8,2464.4,144.4,82.5,5.1
0.431135,385.0,81.5,1717.1,82.6,2539.7,161.6,396.2,1656.3,2465.5,144.3,83.1,5
0.433135,393.6,74.0,1726.2,83.9,2528.9,163.1,393.8,1662.8,2466.7,144.2,83.7,5
0.435135,401.9,67.5,1733.9,83.3,2517.0,154.7,391.4,1669.3,2468,144,84.1,5.4
0.437135,408.4,61.7,1741.6,79.4,2505.6,134.5,389,1675.9,2469.3,143.8,84.5,6.4
0.439135,411.9,57.5,1749.8,75.4,2493.8,115.7,386.7,1682.5,2470.6,143.6,84.8,7.8
0.441135,413.6,53.3,1757.0,75.4,2481.1,106.7,384.4,1689.1,2472,143.4,85.1,9.3
0.443135,414.9,49.6,1761.7,79.6,2470.1,102.7,382.1,1695.7,2473.5,143.1,85.2,10.6
0.445135,416.0,47.4,1764.7,86.2,2460.2,97.5,379.9,1702.3,2474.9,142.8,85.3,11.6
0.447135,416.3,47.5,1767.6,93.6,2448.8,88.4,377.7,1709,2476.4,142.4,85.3,12
0.449135,415.2,49.9,1772.2,98.5,2440.1,78.1,375.5,1715.6,2478,142.1,85.2,12.1
0.451135,413.1,52.9,1780.0,100.7,2436.6,72.2,373.3,1722.3,2479.6,141.7,85.1,12
0.453135,411.3,55.5,1789.7,102.4,2436.1,74.7,371.2,1728.9,2481.2,141.2,84.9,11.8
0.455135,409.7,58.1,1795.3,104.2,2434.2,84.7,369.1,1735.6,2482.8,140.8,84.7,11.5
0.457135,407.2,60.8,1792.5,105.6,2427.8,96.7,367.1,1742.3,2484.5,140.3,84.5,11.2
0.459135,405.0,62.3,1783.4,108.3,2416.5,105.8,365.1,1748.9,2486.3,139.8,84.1,10.8
0.461135,403.7,65.1,1770.5,112.8,2399.1,110.5,363.1,1755.6,2488,139.3,83.8,10.3
0.463135,402.6,71.7,1756.5,113.2,2379.1,104.5,361.2,1762.3,2489.8,138.7,83.3,9.8
0.465135,400.7,79.4,1745.1,105.3,2364.4,89.2,359.3,1768.9,2491.7,138.2,82.9,9.4
0.467135,400.2,85.8,1736.1,93.3,2356.0,74.6,357.4,1775.5,2493.6,137.6,82.4,9.1
0.469135,403.0,94.5,1726.9,86.3,2350.3,70.3,355.6,1782.1,2495.5,137,81.9,9
0.471135,406.7,106.7,1714.3,88.1,2343.3,78.1,353.8,1788.7,2497.4,136.4,81.4,8.9
0.473135,405.5,113.0,1699.2,96.2,2335.0,93.6,352.1,1795.3,2499.4,135.8,80.9,8.7
0.475135,397.7,109.4,1685.9,105.8,2330.4,110.8,350.4,1801.8,2501.4,135.2,80.5,8.4
0.477135,383.2,105.2,1681.2,115.9,2339.0,136.0,348.8,1808.3,2503.4,134.6,80.2,7.7
0.479135,361.2,111.2,1689.6,124.6,2370.5,174.5,347.2,1814.8,2505.5,134,80,6.8
0.481135,335.1,126.8,1703.6,129.4,2423.4,210.8,345.7,1821.2,2507.5,133.4,80,5.8
0.483135,319.6,144.6,1712.5,139.6,2469.9,232.0,344.2,1827.7,2509.7,132.8,80.2,5.2
0.485135,317.5,156.2,1713.7,172.3,2492.7,265.3,342.8,1834,2511.8,132.2,80.5,5.1
0.487135,313.6,148.4,1706.3,245.1,2504.2,331.5,341.4,1840.4,2514,131.6,80.8,5.7
0.489135,303.2,127.9,1685.9,324.3,2517.2,383.1,340,1846.7,2516.2,131,81.1,7
0.491135,293.5,111.6,1659.7,338.4,2515.3,366.4,338.8,1852.9,2518.4,130.4,81.3,8.5
0.493135,287.7,109.5,1653.5,303.2,2481.2,321.2,337.5,1859.1,2520.6,129.8,81.5,10
0.495135,285.1,125.7,1672.7,267.7,2436.1,268.7,336.3,1865.3,2522.9,129.2,81.5,11.2
0.497135,288.0,161.0,1710.7,232.9,2407.0,214.4,335.2,1871.4,2525.1,128.6,81.5,12
0.499135,303.9,199.7,1748.9,205.5,2399.3,182.2,334.2,1877.4,2527.5,128,81.5,12.8
0.501135,327.7,211.3,1778.2,203.2,2400.8,179.8,333.2,1883.4,2529.8,127.4,81.6,13.4
0.503135,332.4,191.7,1796.3,239.2,2398.6,207.7,332.2,1889.3,2532.1,126.8,81.7,13.7
0.505135,315.5,159.4,1800.6,319.1,2381.4,255.4,331.3,1895.2,2534.5,126.2,81.7,13.8
0.507135,293.2,122.9,1769.9,422.2,2351.7,284.7,330.5,1901,2536.9,125.7,81.8,13.4
0.509135,277.8,100.2,1701.1,429.9,2344.7,263.7,329.7,1906.7,2539.3,125.1,81.8,12.5
0.511135,267.8,92.7,1652.6,352.8,2366.2,229.1,329,1912.4,2541.7,124.5,81.8,11.5
0.513135,261.7,96.6,1635.1,289.6,2398.4,197.4,328.3,1918,2544.1,123.9,81.7,10.6
0.515135,261.7,114.3,1635.5,256.0,2427.2,171.4,327.7,1923.5,2546.5,123.3,81.6,10.2
0.517135,273.3,155.3,1646.9,243.6,2444.0,156.7,327.2,1928.9,2549,122.8,81.5,10.4
