time,f1,b1,f2,b2,f3,b3,f1p,f2p,f3p,f0,intensity,harmonicity
0.025266,430.5,272.0,565.2,150.4,1548.5,323.1,561.1,1571,2068.1,0,75,1
0.027266,448.0,259.5,583.6,170.3,1563.7,283.5,561.1,1571.1,2068.2,0,75.1,13.6
0.029266,490.3,218.0,634.8,246.2,1589.9,247.1,561.1,1571.2,2068.4,0,75.1,14.8
0.031266,550.0,176.7,707.1,369.4,1621.1,242.5,561.2,1571.3,2068.7,0,75.1,9.7
0.033266,597.1,119.0,814.8,556.2,1659.2,272.3,561.3,1571.4,2069,0,75.2,3.1
0.035266,617.2,87.7,958.7,677.1,1706.4,311.7,561.4,1571.5,2069.4,0,75.5,0
0.037266,626.3,76.2,1074.0,692.4,1751.2,335.4,561.5,1571.7,2069.9,0,75.9,0.7
0.039266,631.6,75.0,1145.1,682.7,1791.6,343.6,561.6,1572,2070.5,189.7,76.3,1.7
0.041266,634.3,83.9,1172.1,680.3,1823.1,334.4,561.7,1572.2,2071.1,189.4,76.7,2.9
0.043266,637.3,102.8,1162.8,653.5,1845.1,311.5,561.9,1572.5,2071.8,189.1,77.1,4
0.045266,645.6,125.7,1143.1,597.8,1859.7,291.8,562.1,1572.8,2072.6,188.7,77.5,4.8
0.047266,659.2,140.2,1138.9,554.8,1871.8,285.2,562.3,1573.1,2073.4,188.4,77.9,5
0.049266,674.0,145.8,1154.5,530.2,1890.8,282.8,562.5,1573.5,2074.4,188,78.3,4.9
0.051266,685.4,149.7,1181.6,512.4,1918.7,270.1,562.7,1573.9,2075.4,187.7,78.6,4.8
0.053266,693.2,158.1,1207.3,491.3,1948.2,242.0,563,1574.3,2076.4,187.3,78.9,4.9
0.055266,698.2,170.0,1224.7,470.3,1971.0,210.6,563.2,1574.7,2077.6,187,79.1,5.6
0.057266,700.1,178.9,1233.4,454.7,1985.2,187.6,563.5,1575.2,2078.8,186.7,79.4,7.1
0.059266,699.1,181.9,1237.6,444.3,1993.8,171.1,563.8,1575.7,2080.1,186.4,79.6,9.4
0.061266,696.8,181.7,1241.6,448.2,1998.5,160.8,564.1,1576.3,2081.4,186.1,79.7,11.8
0.063266,694.9,183.4,1250.1,476.1,1999.7,157.5,564.4,1576.8,2082.8,185.8,79.9,14
0.065266,694.2,187.7,1267.3,528.9,1996.9,160.1,564.7,1577.4,2084.3,185.6,80,15.6
0.067266,694.2,192.0,1292.1,593.2,1991.2,165.5,565.1,1578,2085.9,185.3,80.1,16.4
0.069266,694.0,194.7,1322.3,662.4,1984.0,170.6,565.5,1578.6,2087.5,185.1,80.2,16.7
0.071266,693.6,195.4,1350.7,726.5,1975.9,173.0,565.8,1579.3,2089.2,184.9,80.2,16.8
0.073266,692.6,195.9,1374.3,790.3,1966.8,172.3,566.2,1580,2091,184.8,80.2,16.5
0.075266,690.3,197.2,1396.7,865.4,1957.9,169.2,566.6,1580.7,2092.8,184.6,80.3,16.2
0.077266,686.0,197.8,1427.7,948.9,1950.9,165.7,567.1,1581.4,2094.7,184.5,80.3,15.7
0.079266,677.4,196.0,1484.1,1031.9,1944.5,164.3,567.5,1582.2,2096.7,184.4,80.2,15
0.081266,663.5,189.9,1564.2,1085.6,1937.9,166.6,567.9,1583,2098.7,184.3,80.1,14.1
0.083266,645.8,179.1,1644.9,1116.1,1929.9,169.6,568.4,1583.8,2100.8,184.3,80,13.1
0.085266,627.2,165.8,1693.4,1151.2,1923.0,166.9,568.9,1584.6,2103,184.3,79.8,12.1
0.087266,610.5,154.6,1693.1,1193.2,1920.9,157.6,569.4,1585.5,2105.2,184.3,79.4,10.8
0.089266,593.7,148.1,1654.1,1239.9,1923.9,143.0,569.9,1586.4,2107.5,184.3,79,9.3
0.091266,574.7,150.1,1592.3,1301.2,1929.5,126.6,570.4,1587.3,2109.8,184.3,78.4,7.7
0.093266,548.0,158.3,1510.5,1370.4,1935.7,114.8,570.9,1588.2,2112.2,184.4,77.8,6.4
0.095266,515.2,159.8,1467.0,1427.7,1941.9,118.8,571.4,1589.1,2114.7,184.5,77.2,5.7
0.097266,495.5,148.5,1623.5,1467.7,1945.6,162.9,572,1590.1,2117.2,184.6,76.7,5.4
0.099266,495.8,131.7,1875.5,970.7,1934.3,344.3,572.5,1591.1,2119.7,184.7,76.4,5.5
0.101266,503.7,114.9,1733.5,415.5,2133.2,548.2,573.1,1592.1,2122.4,184.9,76.2,5.9
0.103266,508.8,101.3,1690.1,348.8,2153.9,444.4,573.7,1593.1,2125.1,185,76.2,6.6
0.105266,510.4,91.2,1686.3,356.5,2120.5,376.6,574.2,1594.1,2127.8,185.2,76.2,7.6
0.107266,509.0,84.5,1702.6,408.4,2084.1,349.3,574.8,1595.2,2130.6,185.4,76.2,9
0.109266,505.4,80.5,1745.0,499.8,2041.4,354.3,575.4,1596.3,2133.5,185.6,76.3,11
0.111266,501.5,79.2,1808.8,629.8,1984.9,343.9,576,1597.4,2136.4,185.8,76.3,13.2
0.113266,499.3,79.7,1850.3,804.5,1951.9,274.6,576.6,1598.5,2139.3,186,76.3,15
0.115266,501.4,80.0,1882.7,916.6,1950.5,226.5,577.3,1599.6,2142.3,186.2,76.4,16.2
0.117266,508.5,77.7,1937.0,969.0,1960.9,198.2,577.9,1600.8,2145.4,186.5,76.5,16.6
0.119266,519.8,69.6,1977.4,175.4,2022.7,972.8,578.5,1601.9,2148.5,186.8,76.7,16.5
0.121266,531.0,56.4,1983.6,156.6,2138.2,849.7,579.2,1603.1,2151.6,187,77,16
0.123266,539.6,44.5,1965.4,126.7,2243.6,619.2,579.8,1604.3,2154.8,187.3,77.4,15.3
0.125266,545.9,38.3,1945.5,88.5,2295.1,457.1,580.5,1605.5,2158,187.6,77.9,14.5
0.127266,550.4,36.3,1937.0,65.7,2314.7,392.4,581.1,1606.7,2161.3,187.9,78.5,13.4
0.129266,553.5,36.2,1937.9,54.6,2325.9,377.6,581.8,1607.9,2164.6,188.3,79,11.9
0.131266,554.7,37.0,1944.9,51.4,2338.4,386.6,582.5,1609.2,2168,188.6,79.5,10.3
0.133266,554.8,38.5,1954.0,53.9,2356.6,395.5,583.1,1610.4,2171.4,189,79.9,8.9
0.135266,554.4,40.3,1962.6,65.0,2372.9,390.0,583.8,1611.7,2174.8,189.3,80.2,8
0.137266,554.1,41.9,1969.7,92.7,2375.2,371.3,584.5,1612.9,2178.3,189.7,80.3,7.6
0.139266,553.7,43.5,1975.2,167.5,2356.2,338.1,585.2,1614.2,2181.8,190.1,80.4,7.5
0.141266,552.3,45.1,1966.1,361.9,2320.2,266.0,585.8,1615.5,2185.4,190.5,80.4,7.7
0.143266,549.8,46.2,1894.3,681.8,2309.6,166.0,586.5,1616.8,2188.9,191,80.4,8.1
0.145266,548.2,45.3,1823.5,915.3,2315.3,125.1,587.2,1618.1,2192.5,191.4,80.4,8.7
0.147266,548.8,43.6,1840.3,1004.5,2318.7,121.5,587.9,1619.4,2196.2,191.9,80.3,9.8
0.149266,550.8,41.9,1912.4,1018.4,2321.9,131.1,588.6,1620.7,2199.9,192.4,80.2,11.3
0.151266,553.2,40.9,1979.8,998.2,2325.5,143.1,589.3,1622,2203.6,192.9,80.1,12.9
0.153266,555.4,41.0,2015.9,992.4,2328.3,151.3,589.9,1623.3,2207.3,193.4,79.9,14.2
0.155266,557.3,42.5,2025.0,1031.6,2329.2,153.0,590.6,1624.7,2211.1,193.9,79.7,14.8
0.157266,559.2,44.7,2023.3,1115.9,2328.8,150.5,591.3,1626,2214.8,194.5,79.3,14.5
0.159266,561.4,46.9,2027.7,1243.5,2329.1,148.2,592,1627.3,2218.7,195.1,79,13.5
0.161266,564.4,48.8,2046.7,1388.2,2331.2,151.9,592.6,1628.7,2222.5,195.6,78.5,12.1
0.163266,568.5,50.6,2069.8,1509.8,2336.6,167.7,593.3,1630,2226.3,196.2,78.1,10.9
0.165266,573.7,52.3,2085.9,1564.8,2350.0,204.6,594,1631.3,2230.2,196.9,77.6,10.3
0.167266,579.0,52.9,2081.0,1508.6,2382.6,265.9,594.6,1632.7,2234.1,197.5,77.2,10.3
0.169266,584.0,50.9,2008.5,1252.1,2466.2,327.5,595.3,1634,2238,198.1,76.9,10.8
0.171266,587.7,45.2,1897.0,911.3,2558.9,273.8,596,1635.3,2241.9,198.8,76.7,11.4
0.173266,590.9,37.2,1850.6,634.3,2591.3,193.2,596.6,1636.7,2245.8,199.5,76.6,12.1
0.175266,594.6,29.5,1842.9,447.0,2600.4,132.6,597.3,1638,2249.8,200.2,76.6,12.4
0.177266,598.1,23.7,1845.5,337.6,2609.6,91.1,597.9,1639.3,2253.7,200.8,76.8,12.6
0.179266,601.2,20.1,1855.5,281.8,2620.4,66.5,598.5,1640.6,2257.7,201.5,77,12.5
0.181266,603.4,19.6,1876.6,279.1,2630.0,59.7,599.1,1641.9,2261.7,202.2,77.2,12.5
0.183266,604.8,21.8,1910.9,321.2,2640.6,65.0,599.8,1643.3,2265.7,202.9,77.4,12.4
0.185266,605.5,25.9,1956.9,400.4,2656.1,75.4,600.4,1644.6,2269.7,203.6,77.5,12.3
0.187266,605.7,30.9,2004.3,511.1,2674.9,84.4,601,1645.8,2273.7,204.4,77.6,12.2
0.189266,605.6,36.5,2039.8,688.3,2693.8,93.6,601.6,1647.1,2277.7,205.1,77.6,12.1
0.191266,605.5,41.1,2013.7,919.5,2706.9,105.0,602.1,1648.4,2281.7,205.8,77.5,11.9
0.193266,605.2,43.3,1925.2,1025.4,2710.8,112.9,602.7,1649.7,2285.7,206.5,77.4,11.9
0.195266,604.8,42.5,1855.0,941.3,2710.9,107.5,603.3,1650.9,2289.7,207.2,77.2,11.9
0.197266,604.5,40.1,1823.5,764.9,2714.3,100.0,603.8,1652.2,2293.7,207.9,77.1,12
0.199266,604.8,38.5,1807.2,581.8,2721.1,98.6,604.4,1653.4,2297.6,208.6,76.9,12.1
0.201266,605.7,38.9,1790.5,448.9,2730.3,100.9,604.9,1654.6,2301.6,209.4,76.7,12.3
0.203266,606.7,40.7,1768.4,358.0,2741.5,101.1,605.4,1655.8,2305.6,210.1,76.6,12.5
0.205266,607.1,42.6,1745.8,290.3,2755.0,96.6,605.9,1657,2309.6,210.8,76.5,12.7
0.207266,606.9,44.0,1734.0,240.9,2768.7,92.4,606.4,1658.2,2313.6,211.5,76.4,12.9
0.209266,606.3,45.7,1738.1,207.0,2782.4,99.4,606.9,1659.4,2317.5,212.2,76.4,13.1
0.211266,605.6,47.8,1750.1,189.4,2784.1,315.3,607.3,1660.5,2321.4,212.9,76.4,13.3
0.213266,605.8,49.0,1756.0,180.6,2735.8,246.6,607.8,1661.7,2325.4,213.6,76.4,13.6
0.215266,607.7,47.9,1752.0,176.3,2707.8,200.2,608.2,1662.8,2329.3,214.3,76.5,13.9
0.217266,611.0,44.6,1743.9,175.0,2692.8,168.2,608.7,1663.9,2333.2,215,76.5,14.2
0.219266,614.7,40.9,1738.4,179.1,2680.7,154.6,609.1,1665,2337.1,215.7,76.6,14.7
0.221266,617.9,38.8,1743.4,193.8,2666.8,160.7,609.5,1666.1,2340.9,216.4,76.5,15.1
0.223266,620.9,39.0,1762.3,218.5,2651.5,174.8,609.8,1667.1,2344.8,217.1,76.5,15.5
0.225266,623.7,41.5,1793.1,240.6,2646.1,176.7,610.2,1668.1,2348.6,217.8,76.5,15.7
0.227266,625.6,47.2,1826.5,248.9,2652.5,151.2,610.6,1669.1,2352.4,218.5,76.4,15.7
0.229266,625.2,59.8,1864.1,250.4,2663.6,115.2,610.9,1670.1,2356.2,219.2,76.4,15.4
0.231266,620.5,82.4,1906.2,243.2,2682.2,90.9,611.2,1671.1,2359.9,219.9,76.5,15.1
0.233266,610.2,114.2,1943.6,213.1,2570.6,2336.4,611.5,1672,2363.6,220.6,76.6,15
0.235266,596.1,150.2,1964.9,173.7,2483.2,3214.2,611.8,1672.9,2367.3,221.2,76.7,15.1
0.237266,582.1,180.2,1973.2,149.4,2396.5,4027.3,612,1673.8,2371,221.9,76.9,15.7
0.239266,568.6,203.7,1976.6,138.2,2201.3,4167.3,612.3,1674.7,2374.6,222.6,77,16.6
0.241266,557.3,225.5,1903.6,4198.9,1977.3,130.4,612.5,1675.5,2378.2,223.2,77.1,17.6
0.243266,547.3,250.7,1314.8,5068.1,1976.1,120.6,612.7,1676.4,2381.8,223.8,77.2,18.7
0.245266,539.5,271.3,1974.7,113.0,2726.0,37.8,612.9,1677.2,2385.4,224.5,77.3,19.7
0.247266,536.9,273.5,1976.7,109.6,2727.3,29.4,613.1,1677.9,2388.9,225.1,77.3,20.7
0.249266,540.0,257.5,1982.9,107.1,2728.9,25.3,613.2,1678.7,2392.3,225.7,77.3,21.8
0.251266,547.2,235.1,1991.2,102.9,2730.1,22.4,613.4,1679.4,2395.8,226.3,77.3,22.8
0.253266,555.7,216.4,1998.6,96.2,2731.7,19.8,613.5,1680,2399.1,226.9,77.3,23.7
0.255266,563.5,205.9,2003.8,88.3,2734.7,18.2,613.6,1680.7,2402.5,227.5,77.3,24.2
0.257266,568.4,201.7,832.3,4655.4,2007.5,82.4,613.6,1681.3,2405.8,228.1,77.2,24.2
0.259266,569.7,201.0,1201.0,3537.9,2012.8,78.6,613.7,1681.9,2409.1,228.6,77.2,24
0.261266,568.4,205.7,1220.7,3221.6,2019.7,75.3,613.7,1682.5,2412.3,229.2,77.1,23.6
0.263266,566.2,219.2,1028.9,3585.4,2025.0,72.1,613.8,1683,2415.5,229.7,77.1,23
0.265266,562.5,236.9,2026.2,72.3,2753.5,31.2,613.7,1683.5,2418.6,230.3,77,22.5
0.267266,555.8,246.6,2024.1,80.0,2751.4,37.9,613.7,1684,2421.7,230.8,76.9,21.8
0.269266,544.5,242.0,2019.7,101.2,2743.1,48.9,613.7,1684.4,2424.7,231.3,76.9,20.9
0.271266,529.0,226.6,2013.7,139.9,2727.9,72.3,613.6,1684.8,2427.7,231.8,76.8,20
0.273266,510.1,209.8,2007.7,191.1,2703.1,113.0,613.5,1685.2,2430.7,232.3,76.7,19.3
0.275266,490.7,193.3,2008.2,247.6,2670.8,149.9,613.4,1685.6,2433.6,232.8,76.6,19
0.277266,475.3,178.7,2020.9,305.4,2650.4,167.7,613.3,1685.9,2436.4,233.3,76.4,19.2
0.279266,463.9,170.4,2050.8,358.0,2644.1,177.2,613.1,1686.1,2439.2,233.8,76.3,19.9
0.281266,459.1,175.3,2092.8,377.3,2644.6,172.2,612.9,1686.4,2441.9,234.3,76.2,20.7
0.283266,462.3,195.1,2123.1,364.3,2642.1,153.6,612.7,1686.6,2444.6,234.7,76.1,21.4
0.285266,472.6,222.1,2130.5,347.0,2634.1,127.2,612.5,1686.7,2447.2,235.1,76,21.8
0.287266,484.8,247.3,2126.6,329.0,2625.1,98.3,612.3,1686.9,2449.8,235.6,76,21.9
0.289266,203.1,1065.7,494.9,284.3,2120.2,301.6,612,1687,2452.3,236,76,21.7
0.291266,357.5,661.9,513.3,367.2,2111.7,273.7,611.7,1687,2454.8,236.4,76,21.4
0.293266,344.4,447.1,570.1,389.3,2102.3,263.7,611.4,1687.1,2457.2,236.7,76,21.1
0.295266,335.8,423.2,575.9,355.4,2094.9,273.7,611.1,1687,2459.5,237.1,76.1,20.8
0.297266,336.7,471.3,554.0,333.8,2089.1,286.1,610.8,1687,2461.8,237.4,76.1,20.7
0.299266,331.2,618.9,515.5,292.1,2085.4,298.9,610.4,1686.9,2464,237.7,76.1,20.6
0.301266,195.1,977.5,487.9,217.1,2094.1,332.7,610,1686.8,2466.1,238,76.2,20.5
0.303266,476.8,148.6,1528.8,4844.9,2157.7,458.6,609.6,1686.6,2468.2,238.3,76.3,20.2
0.305266,475.2,103.0,1796.3,1228.0,2379.4,287.3,609.2,1686.4,2470.2,238.5,76.4,19.5
0.307266,478.8,81.5,1735.2,920.8,2390.0,132.5,608.7,1686.2,2472.2,238.7,76.5,18.4
0.309266,485.8,72.2,1755.5,867.2,2393.7,79.4,608.2,1685.9,2474.1,238.9,76.6,16.8
0.311266,494.6,69.3,1779.4,876.2,2394.1,57.8,607.7,1685.6,2475.9,239,76.7,15.1
0.313266,503.1,68.6,1777.5,867.3,2394.6,47.5,607.2,1685.2,2477.7,239.2,76.9,13.5
0.315266,509.5,67.3,1761.9,817.6,2397.8,43.4,606.7,1684.8,2479.4,239.2,77.1,12.2
0.317266,513.9,65.2,1757.8,753.0,2405.2,45.6,606.1,1684.4,2481,239.3,77.3,11.4
0.319266,517.9,63.5,1764.6,684.4,2419.6,55.4,605.5,1683.9,2482.6,239.3,77.5,10.9
0.321266,523.5,64.3,1762.6,612.9,2442.5,72.1,604.9,1683.4,2484.1,239.3,77.7,10.5
0.323266,533.3,69.8,1743.9,544.6,2472.2,92.7,604.3,1682.8,2485.5,239.3,77.8,10.2
0.325266,549.0,81.5,1718.5,493.3,2502.8,114.6,603.7,1682.2,2486.9,239.2,77.9,10.1
0.327266,570.7,97.2,1698.3,460.7,2527.0,136.6,603,1681.6,2488.2,239.1,77.9,9.9
0.329266,602.0,113.2,1688.9,425.3,2545.5,165.8,602.4,1680.9,2489.4,239,77.9,9.9
0.331266,639.1,121.6,1697.1,378.5,2557.9,211.5,601.7,1680.2,2490.6,238.8,77.9,10
0.333266,675.5,122.6,1718.4,333.3,2570.4,287.1,600.9,1679.4,2491.7,238.6,77.9,10.3
0.335266,706.8,121.5,1742.8,301.4,2599.5,413.5,600.2,1678.6,2492.7,238.3,77.9,10.6
0.337266,731.0,121.5,1761.6,284.5,2613.3,670.1,599.4,1677.8,2493.6,238,78,11.1
0.339266,752.0,123.4,1774.1,279.5,2561.8,897.6,598.7,1676.9,2494.5,237.7,78.2,11.9
0.341266,770.2,126.7,1781.5,283.9,2493.4,1085.4,597.9,1675.9,2495.3,237.4,78.5,12.7
0.343266,785.9,129.3,1788.7,290.7,2403.7,1263.9,597.1,1675,2496,237,78.9,13.5
0.345266,797.7,130.0,1799.7,295.4,2280.7,1455.3,596.2,1674,2496.6,236.6,79.3,14
0.347266,804.5,129.4,1814.5,295.7,2111.5,1678.6,595.4,1672.9,2497.2,236.2,79.8,14.2
0.349266,807.1,128.0,1818.0,1918.9,1830.3,290.1,594.5,1671.8,2497.7,235.7,80.3,14.3
0.351266,806.0,125.0,1472.1,1672.3,1840.3,289.3,593.6,1670.7,2498.2,235.2,80.8,14.2
0.353266,802.7,119.6,1405.6,1287.0,1844.3,311.9,592.8,1669.5,2498.5,234.7,81.2,14.1
0.355266,799.0,111.8,1446.3,1048.8,1844.8,380.7,591.8,1668.3,2498.8,234.2,81.6,14.1
0.357266,796.1,103.4,1535.5,805.3,1853.8,553.1,590.9,1667.1,2499,233.6,81.9,14.2
0.359266,793.2,94.4,1543.3,479.4,1992.4,778.8,590,1665.8,2499.2,233,82.2,14.4
0.361266,789.0,86.7,1522.5,330.4,2122.5,789.5,589,1664.5,2499.2,232.4,82.5,14.5
0.363266,781.6,81.7,1514.3,258.7,2162.3,814.0,588,1663.1,2499.2,231.8,82.7,14.3
0.365266,769.2,79.1,1512.3,229.4,2113.3,913.1,587,1661.7,2499.2,231.2,82.9,13.8
0.367266,752.4,75.4,1508.9,220.9,2005.0,974.5,586,1660.2,2499,230.6,83,12.6
0.369266,731.8,67.6,1497.9,211.4,1924.4,923.1,585,1658.7,2498.8,230,83,10.8
0.371266,712.1,58.1,1481.6,188.9,1941.0,848.3,584,1657.2,2498.5,229.4,82.9,8.9
0.373266,694.7,50.1,1465.2,163.7,2027.2,776.7,582.9,1655.6,2498.1,228.8,82.7,7.1
0.375266,679.3,44.8,1449.0,148.3,2134.2,656.0,581.9,1654,2497.7,228.1,82.2,5.8
0.377266,666.4,41.8,1433.9,142.8,2202.4,499.0,580.8,1652.4,2497.2,227.5,81.5,5.1
0.379266,654.8,41.2,1423.3,141.7,2228.6,368.9,579.7,1650.7,2496.6,226.9,80.6,4.7
0.381266,645.9,46.4,1423.3,143.9,2235.4,298.0,578.6,1649,2495.9,226.4,79.5,4.5
0.383266,640.4,64.4,1430.5,153.5,2237.5,269.2,577.5,1647.2,2495.2,225.8,78.2,4.4
0.385266,637.7,103.0,1433.4,180.0,2236.2,274.1,576.4,1645.4,2494.4,0,76.9,4.4
0.387266,631.9,166.1,1423.5,235.2,2228.1,313.0,575.3,1643.6,2493.5,0,75.7,7.6
0.389266,617.3,262.5,1398.2,332.8,2206.6,394.7,574.1,1641.7,2492.5,0,74.7,14.2
0.391266,606.4,361.6,1383.2,456.0,2171.4,552.1,573,1639.8,2491.5,0,73.7,19.2
0.393266,621.0,427.4,1466.2,555.7,2137.9,1026.7,571.8,1637.8,2490.4,0,72.9,17.6
0.395266,650.6,424.0,1578.8,353.4,2379.0,4109.9,570.7,1635.9,2489.3,0,72,4.6
0.397266,656.4,354.0,1590.1,214.2,2584.6,462.5,569.5,1633.8,2488.1,0,71.1,-26.5
0.399266,645.5,263.6,1591.7,144.2,2539.7,424.4,568.3,1631.8,2486.8,0,70.1,-72.3
0.401266,636.1,190.0,1594.5,104.2,2521.9,395.0,567.1,1629.7,2485.4,0,69.2,-123.1
0.403266,632.8,137.4,1599.2,79.3,2523.5,371.3,565.9,1627.6,2484,0,68.2,-168.9
0.405266,636.4,104.4,1604.6,66.6,2539.5,364.5,564.7,1625.4,2482.5,0,67.1,-200
0.407266,647.6,87.2,1609.0,66.7,2556.8,388.2,563.5,1623.2,2480.9,0,65.9,-213.1
0.409266,666.4,74.2,1611.1,83.7,2545.5,457.3,562.3,1621,2479.3,0,64.7,-214.7
0.411266,683.4,58.9,1607.3,126.7,2463.4,516.8,561.1,1618.7,2477.6,0,63.5,-209.8
0.413266,691.2,45.2,1592.4,206.3,2355.8,476.6,559.9,1616.4,2475.8,0,62.3,-203.3
0.415266,691.3,37.1,1564.2,323.3,2278.3,417.1,558.7,1614.1,2474,0,61.1,-200
0.417266,688.4,33.9,1533.9,449.9,2221.1,401.4,557.4,1611.7,2472.1,0,59.9,-200
0.419266,685.2,35.4,1528.7,578.7,2157.9,435.8,556.2,1609.3,2470.1,0,58.6,-200
0.421266,683.9,44.3,1576.9,724.1,2073.6,500.1,555,1606.9,2468.1,0,57.2,-200
0.423266,687.1,65.3,1632.6,985.1,1975.8,486.7,553.7,1604.4,2466,0,55.6,-200
0.425266,697.1,101.2,1505.4,1385.3,1948.4,393.0,552.5,1601.9,2463.9,0,54,-200
0.427266,707.3,134.2,1189.6,1260.9,1967.3,353.6,551.2,1599.4,2461.7,0,52.3,-200
0.429266,706.6,144.5,1113.1,867.3,2012.6,352.4,550,1596.9,2459.4,0,50.7,-200
0.431266,702.1,136.9,1113.3,657.4,2079.7,370.3,548.8,1594.3,2457.1,0,49.4,-200
0.433266,705.3,134.3,1132.2,575.8,2153.2,392.2,547.5,1591.7,2454.7,0,48.8,-200
0.435266,715.9,150.5,1178.9,583.2,2206.3,473.9,546.3,1589,2452.3,0,48.4,-200
0.437266,704.4,212.2,1233.9,528.6,2228.7,651.9,545,1586.4,2449.8,0,51.6,-203.3
0.439266,597.8,307.9,1276.5,298.3,2262.1,513.7,543.8,1583.7,2447.2,0,52.2,-209.8
0.441266,496.9,297.8,1306.8,173.8,2296.7,329.8,542.6,1580.9,2444.6,0,55.3,-214.7
0.443266,457.3,279.3,1318.7,141.9,2321.8,255.1,541.3,1578.2,2441.9,0,59.2,-213.1
0.445266,433.9,258.1,1327.2,138.0,2339.6,228.6,540.1,1575.4,2439.2,0,63.4,-200
0.447266,411.0,204.1,1336.1,149.0,2352.4,233.5,538.9,1572.6,2436.4,0,67.3,-168.9
0.449266,389.3,128.1,1345.2,192.6,2372.2,283.5,537.7,1569.8,2433.6,0,70.8,-123.1
0.451266,379.5,86.9,1354.3,319.6,2432.3,416.3,536.5,1567,2430.7,0,73.8,-72.4
0.453266,379.4,75.5,1370.0,576.5,2528.9,728.2,535.2,1564.1,2427.8,0,76.1,-26.7
0.455266,382.4,72.2,1410.2,931.1,2570.2,954.1,534,1561.2,2424.8,0,77.9,4
0.457266,385.4,69.7,1539.6,1264.1,2693.3,1003.7,532.8,1558.3,2421.8,0,79.2,16.3
0.459266,388.3,66.8,1718.0,1253.0,2688.3,132.6,531.7,1555.4,2418.8,0,80,16.7
0.461266,391.3,65.3,1761.2,1221.4,2669.2,144.8,530.5,1552.4,2415.7,0,80.3,10.6
0.463266,396.2,67.9,1817.6,1452.5,2640.7,143.9,529.3,1549.4,2412.5,0,80.2,3.1
0.465266,408.6,80.7,1651.0,2115.0,2624.7,1155.8,528.1,1546.4,2409.3,0,79.7,-0.5
0.467266,434.4,107.4,1601.1,1828.3,2530.8,649.5,527,1543.4,2406.1,0,79.1,-0.2
0.469266,474.0,139.8,1670.4,1459.0,2538.5,473.7,525.8,1540.4,2402.8,0,78.5,0.6
0.471266,507.8,159.2,1710.8,1297.3,2559.8,403.3,524.7,1537.3,2399.4,0,78,1.7
0.473266,530.1,166.3,1762.6,1303.9,2595.9,411.2,523.5,1534.2,2396.1,216.2,77.7,3
0.475266,545.5,163.1,1832.7,1355.8,2604.2,137.9,522.4,1531.1,2392.7,216,77.6,4.3
0.477266,554.6,153.5,1876.0,1361.6,2594.4,129.8,521.3,1528,2389.2,215.8,77.6,5.8
0.479266,558.5,145.0,1851.1,1335.8,2584.6,126.4,520.2,1524.9,2385.8,215.5,77.6,7.6
0.481266,558.8,143.1,1771.8,1331.9,2575.3,130.5,519.1,1521.8,2382.3,215.2,77.6,9.4
0.483266,558.2,145.5,1691.3,1373.1,2567.3,143.0,518,1518.6,2378.7,215,77.6,11.1
0.485266,558.3,146.8,1649.6,1477.8,2561.1,162.0,516.9,1515.4,2375.1,214.7,77.6,12.2
0.487266,560.6,143.7,1663.9,1654.0,2558.0,182.2,515.9,1512.2,2371.5,214.4,77.6,13
0.489266,566.1,135.6,1732.5,1915.5,2557.1,199.8,514.8,1509,2367.9,214.2,77.6,13.5
0.491266,574.3,125.2,1812.8,2219.0,2556.2,206.7,513.8,1505.8,2364.2,213.9,77.6,13.7
0.493266,583.3,115.3,1843.5,2519.1,2556.7,204.2,512.8,1502.6,2360.5,213.6,77.7,13.6
0.495266,590.8,105.3,1800.6,2770.0,2562.0,202.0,511.8,1499.4,2356.8,213.4,77.7,13.2
0.497266,595.2,96.0,1684.4,3061.6,2567.8,205.7,510.8,1496.1,2353,213.2,77.7,12.2
0.499266,598.1,88.2,1396.1,3693.7,2559.6,208.0,509.8,1492.9,2349.3,212.9,77.7,10.6
0.501266,601.8,81.4,809.2,4627.9,2542.0,187.8,508.9,1489.6,2345.5,212.7,77.7,8.9
0.503266,607.6,73.2,1136.1,4403.5,2537.6,169.8,507.9,1486.3,2341.7,212.5,77.6,7.4
0.505266,614.2,65.1,1712.0,2878.8,2548.8,168.7,507,1483.1,2337.8,212.3,77.5,6.7
0.507266,618.9,60.3,1796.1,1838.3,2567.7,164.0,506.1,1479.8,2334,212.2,77.3,6.7
0.509266,619.8,57.9,1737.4,1229.6,2585.6,158.9,505.2,1476.5,2330.1,212,77.1,7.4
0.511266,617.6,55.3,1681.5,869.4,2611.2,170.1,504.3,1473.2,2326.2,211.9,76.9,8.4
0.513266,615.2,51.9,1675.6,635.8,2653.6,186.3,503.5,1469.9,2322.3,211.8,76.8,9.4
0.515266,614.0,51.1,1725.4,504.2,2685.5,172.9,502.6,1466.6,2318.4,211.7,76.6,10.3
0.517266,613.2,53.7,1790.6,422.0,2683.6,166.7,501.8,1463.2,2314.4,211.7,76.5,10.9
