time,f1,b1,f2,b2,f3,b3,f1p,f2p,f3p,f0,intensity,harmonicity
0.025703,339.4,98.8,2334.9,706.4,3141.7,517.7,529.9,2249.7,2912.7,180.6,76,3
0.027703,348.0,108.4,2279.1,687.7,3090.5,431.6,530,2249.4,2912.6,180,76.3,2.1
0.029703,358.5,117.8,2238.8,656.7,3076.0,376.8,530.2,2249,2912.3,179.5,76.3,3.5
0.031703,370.8,127.3,2237.1,626.4,3105.7,375.0,530.4,2248.4,2912,178.9,76.2,6
0.033703,381.4,134.9,2269.5,591.8,3169.0,388.9,530.7,2247.6,2911.5,178.2,76,8.9
0.035703,383.3,142.4,2324.5,574.0,3208.3,381.3,531,2246.6,2910.9,177.6,75.8,11.7
0.037703,372.1,151.4,2393.6,591.4,3202.5,376.4,531.4,2245.5,2910.2,176.9,75.6,13.8
0.039703,353.9,154.0,2448.7,628.2,3175.2,374.1,531.9,2244.2,2909.5,176.3,75.3,15
0.041703,339.9,150.4,2463.5,666.3,3143.3,356.9,532.4,2242.7,2908.6,175.6,75,15.7
0.043703,332.7,147.8,2434.8,676.2,3121.5,324.4,533,2241.1,2907.6,174.9,74.7,16.1
0.045703,328.4,144.9,2400.7,646.3,3123.0,304.5,533.6,2239.3,2906.5,174.3,74.4,16.5
0.047703,321.3,138.8,2400.1,624.8,3147.2,316.4,534.3,2237.3,2905.4,173.6,74,17
0.049703,309.8,130.4,2431.1,665.6,3165.7,348.0,535.1,2235.2,2904.1,172.9,73.8,17.6
0.051703,299.9,121.0,2460.6,772.9,3152.8,369.1,535.9,2232.9,2902.7,172.3,73.6,18.3
0.053703,295.7,113.7,2441.3,869.9,3124.1,348.2,536.8,2230.5,2901.2,171.7,73.4,18.9
0.055703,295.8,107.5,2374.7,859.4,3105.6,312.2,537.7,2227.9,2899.7,171.1,73.2,19.4
0.057703,298.0,100.6,2319.0,768.9,3101.2,304.8,538.7,2225.1,2898,170.6,73,19.6
0.059703,300.6,93.5,2298.5,676.6,3108.6,332.7,539.7,2222.2,2896.2,170.1,72.7,19.5
0.061703,301.9,86.5,2303.2,618.2,3121.0,376.5,540.8,2219.1,2894.4,169.6,72.4,19.1
0.063703,301.2,79.0,2322.7,619.2,3128.1,428.0,541.9,2215.9,2892.5,169.2,72,18.5
0.065703,299.7,71.0,2356.9,701.3,3131.6,506.6,543.1,2212.6,2890.4,168.8,71.6,17.9
0.067703,298.2,63.6,2414.0,861.0,3142.8,619.3,544.3,2209.1,2888.3,168.4,71.1,17.4
0.069703,296.8,58.3,2483.4,1014.7,3168.7,700.2,545.6,2205.5,2886.1,168.1,70.6,20.4
0.071703,295.4,55.5,2495.2,1010.4,3186.4,644.3,547,2201.8,2883.8,167.8,70.1,26.8
0.073703,294.4,53.7,2476.8,843.4,3186.0,520.3,548.3,2197.9,2881.4,167.6,69.7,31.5
0.075703,293.9,51.2,2470.1,664.4,3183.8,417.7,549.7,2193.9,2879,167.5,69.2,29.4
0.077703,292.8,47.2,2451.5,557.0,3184.8,356.9,551.2,2189.8,2876.4,167.4,68.6,15.3
0.079703,289.6,42.4,2404.1,527.1,3187.0,341.3,552.7,2185.6,2873.8,167.3,68,-17.5
0.081703,283.6,38.2,2330.7,560.1,3184.8,373.6,554.2,2181.2,2871.1,167.3,67.2,-65.8
0.083703,276.1,37.7,2214.0,644.1,3157.3,437.9,555.8,2176.8,2868.3,167.3,66.2,-119.1
0.085703,270.4,51.8,2011.2,616.3,3091.5,473.2,557.4,2172.3,2865.5,167.4,64.9,-167.3
0.087703,271.9,147.0,1867.0,466.1,3027.0,568.7,559,2167.6,2862.5,167.6,63.6,-200
0.089703,640.1,1952.8,1880.2,511.2,3040.2,950.2,560.7,2162.9,2859.6,167.7,62.1,-213.8
0.091703,1233.7,466.8,2008.2,323.5,3110.5,843.9,562.4,2158.1,2856.5,167.9,61.1,-215.5
0.093703,1235.6,376.6,2013.6,263.9,3142.5,758.6,564.1,2153.2,2853.4,0,60.9,-210.3
0.095703,1104.3,365.8,1659.7,1130.3,2046.1,341.9,565.8,2148.2,2850.2,0,61.8,-203.4
0.097703,1078.3,302.0,1726.8,833.4,2081.7,371.2,567.6,2143.1,2846.9,0,63.3,-200
0.099703,1085.6,352.2,1825.5,1109.4,2062.7,390.6,569.4,2138,2843.6,0,64.8,-203.2
0.101703,1102.7,406.3,2039.2,375.8,2077.4,1412.4,571.2,2132.8,2840.3,0,66.3,-209.6
0.103703,1096.3,465.1,2039.2,357.8,2204.0,1582.0,573,2127.6,2836.8,0,67.9,-214.4
0.105703,1049.3,596.1,2041.7,348.5,2200.4,1989.4,574.9,2122.3,2833.4,0,69.7,-212.8
0.107703,797.2,766.0,1955.1,2321.9,2017.4,345.5,576.7,2116.9,2829.8,0,71.9,-200
0.109703,614.9,321.8,1945.8,287.6,2309.2,1607.9,578.6,2111.6,2826.2,0,74.2,-169.7
0.111703,592.5,139.0,1918.4,183.2,2563.1,768.9,580.4,2106.2,2822.6,0,76.5,-125
0.113703,600.3,88.5,1917.0,145.1,2539.0,556.7,582.3,2100.7,2819,0,78.6,-75.5
0.115703,612.4,70.0,1920.2,134.6,2527.0,521.0,584.2,2095.2,2815.3,0,80.3,-30.7
0.117703,623.6,58.9,1924.7,135.0,2510.7,577.2,586.1,2089.8,2811.5,0,81.6,-0.4
0.119703,632.8,51.5,1929.1,142.2,2445.7,686.9,588,2084.3,2807.7,0,82.6,12.4
0.121703,640.2,48.1,1933.1,153.0,2367.0,710.8,589.9,2078.7,2803.9,0,83.1,14
0.123703,648.3,50.6,1937.6,162.4,2339.5,746.0,591.7,2073.2,2800.1,0,83.4,9.2
0.125703,662.5,62.7,1941.7,163.0,2405.0,895.0,593.6,2067.7,2796.2,0,83.4,2.8
0.127703,690.6,83.4,1933.3,157.5,2707.3,993.4,595.5,2062.2,2792.3,0,83.3,-0.1
0.129703,726.2,93.9,1907.5,160.0,2672.4,374.5,597.3,2056.8,2788.4,0,83.1,0.3
0.131703,748.3,88.5,1882.8,165.7,2619.1,326.7,599.1,2051.3,2784.4,174.4,83,0.8
0.133703,755.9,83.2,1872.4,162.8,2589.5,314.9,601,2045.9,2780.4,174.6,83,1.4
0.135703,757.2,85.0,1870.0,152.1,2583.7,332.5,602.8,2040.5,2776.5,174.8,83.1,2.2
0.137703,758.5,94.5,1868.3,142.3,2584.8,380.2,604.6,2035.1,2772.5,174.9,83.1,3
0.139703,765.5,110.2,1866.5,142.4,2575.4,420.6,606.3,2029.8,2768.5,175,83.1,4.2
0.141703,779.7,128.4,1863.9,159.3,2565.0,404.8,608.1,2024.5,2764.4,175.1,83.1,5.6
0.143703,796.4,146.6,1857.0,194.9,2566.4,358.0,609.8,2019.3,2760.4,175.1,83.1,7.1
0.145703,811.5,169.0,1842.3,238.7,2574.4,315.4,611.5,2014.2,2756.4,175.1,83.2,8.4
0.147703,826.0,200.3,1823.7,270.1,2585.0,285.9,613.1,2009.1,2752.4,175.2,83.3,9.4
0.149703,840.6,237.4,1809.3,282.8,2596.9,268.3,614.7,2004.1,2748.4,175.1,83.4,9.9
0.151703,850.9,270.9,1797.6,284.2,2608.1,259.2,616.3,1999.2,2744.3,175.1,83.5,10
0.153703,855.5,295.5,1785.9,279.6,2617.7,255.8,617.9,1994.3,2740.3,175.1,83.6,9.9
0.155703,861.6,317.1,1560.2,9423.1,1780.7,274.7,619.4,1989.6,2736.3,175,83.7,9.9
0.157703,877.4,346.3,1788.9,273.2,2638.0,256.0,620.8,1984.9,2732.3,175,83.7,10.1
0.159703,903.9,383.1,1808.2,269.9,2653.8,248.3,622.3,1980.4,2728.4,174.9,83.8,10.7
0.161703,936.1,416.5,1828.9,256.7,2670.2,227.4,623.6,1975.9,2724.4,174.9,83.7,11.5
0.163703,965.6,439.6,1842.8,233.3,2682.1,199.1,625,1971.5,2720.5,174.8,83.7,12.4
0.165703,984.1,457.2,1847.7,207.7,2691.1,173.2,626.2,1967.3,2716.5,174.8,83.6,13.2
0.167703,987.2,475.2,1845.4,187.7,2700.1,153.3,627.5,1963.2,2712.6,174.7,83.5,13.8
0.169703,975.5,492.3,1838.0,176.3,2709.7,138.5,628.7,1959.2,2708.8,174.7,83.4,14.3
0.171703,952.9,503.5,1829.7,171.5,2720.3,128.3,629.8,1955.3,2704.9,174.6,83.3,14.8
0.173703,927.5,502.5,1827.9,169.0,2732.3,122.3,630.9,1951.6,2701.1,174.6,83.2,15.1
0.175703,907.3,488.6,1837.5,164.5,2744.7,119.0,631.9,1948,2697.3,174.5,83.2,15.3
0.177703,892.9,467.6,1855.3,155.1,2755.4,117.6,632.8,1944.5,2693.6,174.5,83.1,15.4
0.179703,881.2,447.3,1874.7,142.5,2762.6,119.5,633.7,1941.2,2689.9,174.5,83.1,15.2
0.181703,870.3,429.4,1892.5,128.9,2764.6,125.7,634.6,1938.1,2686.2,174.5,83.1,14.8
0.183703,858.9,411.9,1907.6,113.2,2760.4,133.0,635.3,1935.1,2682.6,174.5,83.1,14.3
0.185703,844.8,397.6,1918.0,95.6,2753.1,136.8,636,1932.2,2679,174.5,83.1,13.9
0.187703,827.1,390.7,1923.1,78.8,2748.7,137.8,636.7,1929.5,2675.5,174.5,83.1,13.5
0.189703,807.3,392.8,1925.5,66.5,2753.3,140.7,637.2,1927,2672,174.5,83.2,13.4
0.191703,789.2,401.3,1928.1,59.2,2767.4,140.8,637.7,1924.6,2668.6,174.6,83.3,13.3
0.193703,778.3,408.9,1931.5,53.1,2779.8,131.9,638.2,1922.5,2665.2,174.6,83.5,13.3
0.195703,770.8,411.5,1934.4,47.0,2784.5,119.5,638.5,1920.4,2661.9,174.6,83.6,13.3
0.197703,757.2,412.2,1936.2,42.0,2784.2,108.7,638.8,1918.6,2658.6,174.7,83.7,13.4
0.199703,734.6,413.3,1937.3,38.2,2781.3,101.8,639,1916.9,2655.4,174.7,83.8,13.6
0.201703,704.9,414.1,1938.0,34.4,2777.6,97.1,639.2,1915.5,2652.3,174.8,83.9,14.1
0.203703,670.4,417.5,1938.4,30.3,2775.1,92.0,639.2,1914.2,2649.2,174.9,83.9,14.6
0.205703,632.3,426.1,1938.9,26.9,2774.1,87.1,639.2,1913.1,2646.2,174.9,83.9,14.8
0.207703,594.3,438.9,1940.5,24.9,2772.0,85.1,639.1,1912.2,2643.2,175,83.9,14.6
0.209703,557.8,446.9,1944.2,24.1,2768.9,88.0,639,1911.4,2640.3,175.1,83.9,13.8
0.211703,521.6,434.3,1949.8,24.1,2767.0,96.5,638.7,1910.9,2637.5,175.2,83.7,12.5
0.213703,487.6,400.3,1955.2,24.3,2767.3,110.2,638.4,1910.6,2634.7,175.2,83.5,11
0.215703,457.2,363.1,1957.1,25.1,2768.1,125.1,638,1910.4,2632,175.3,83.2,9.6
0.217703,430.7,328.0,1954.0,26.8,2768.5,132.8,637.5,1910.5,2629.4,175.4,82.8,8.5
0.219703,409.7,285.6,1946.7,29.7,2769.0,127.0,636.9,1910.7,2626.8,175.5,82.4,7.9
0.221703,395.8,232.4,1937.6,34.4,2769.9,113.2,636.3,1911.2,2624.4,175.6,81.9,7.4
0.223703,388.1,178.9,1930.1,43.0,2770.5,106.7,635.6,1911.8,2622,175.7,81.4,7.1
0.225703,385.0,138.7,1927.3,59.7,2769.2,121.8,634.8,1912.7,2619.6,175.8,80.9,7
0.227703,385.5,114.2,1928.9,90.5,2762.7,172.6,633.9,1913.7,2617.4,175.9,80.5,7.2
0.229703,388.3,98.9,1932.9,142.6,2749.0,280.8,632.9,1915,2615.2,176.1,80.1,7.8
0.231703,392.0,86.5,1943.7,223.0,2699.3,536.5,631.9,1916.4,2613.1,176.2,79.8,8.8
0.233703,395.6,75.8,1978.4,323.2,2557.0,708.9,630.7,1918.1,2611.1,176.3,79.5,10
0.235703,398.1,67.9,2048.8,365.2,2477.1,883.4,629.5,1919.9,2609.2,176.4,79.2,11.2
0.237703,398.7,63.0,2091.9,284.4,2536.6,1172.9,628.3,1922,2607.4,176.5,79.1,12.3
0.239703,397.8,59.7,2087.7,211.5,2702.7,1345.4,626.9,1924.2,2605.6,176.7,78.9,13.4
0.241703,396.5,58.0,2066.6,179.2,2750.1,309.3,625.4,1926.6,2603.9,176.8,78.8,14.6
0.243703,395.8,58.8,2035.1,175.2,2755.8,405.4,623.9,1929.3,2602.3,176.9,78.7,15.7
0.245703,395.5,60.6,1995.6,181.8,2653.3,596.9,622.3,1932.1,2600.8,177,78.7,16.6
0.247703,395.7,60.7,1955.3,186.8,2589.8,488.0,620.6,1935.1,2599.4,177.1,78.7,17
0.249703,396.2,58.4,1919.8,193.0,2581.0,364.3,618.9,1938.3,2598,177.3,78.8,16.8
0.251703,398.3,55.0,1891.8,217.1,2582.4,268.7,617,1941.8,2596.7,177.4,79,16.2
0.253703,402.6,52.8,1873.4,274.9,2567.0,264.6,615.1,1945.3,2595.6,177.5,79.4,15.3
0.255703,406.9,51.7,1860.6,336.7,2507.4,267.8,613.2,1949.1,2594.5,177.6,79.9,14.4
0.257703,408.2,52.5,1860.7,372.3,2465.8,219.2,611.1,1953.1,2593.4,177.7,80.5,13.7
0.259703,405.6,56.3,1883.8,416.9,2443.7,181.6,609,1957.2,2592.5,177.8,81,13.1
0.261703,400.8,62.0,1933.2,501.0,2429.4,161.4,606.8,1961.5,2591.7,177.9,81.6,12.5
0.263703,396.1,66.3,2007.3,625.1,2417.3,154.2,604.5,1966,2590.9,178.1,82,12
0.265703,392.7,66.2,2094.1,762.8,2405.9,149.5,602.2,1970.7,2590.2,178.2,82.4,11.7
0.267703,390.3,61.0,2170.4,877.8,2398.9,141.1,599.8,1975.5,2589.6,178.3,82.7,11.7
0.269703,388.8,54.7,2227.3,970.0,2398.3,133.8,597.3,1980.5,2589.1,178.4,82.9,12.2
0.271703,387.9,51.8,2301.5,1109.4,2400.1,129.8,594.8,1985.6,2588.7,178.5,82.9,13
0.273703,388.0,52.5,2403.2,121.9,2447.2,1363.4,592.2,1990.9,2588.3,178.6,82.9,14.1
0.275703,389.0,53.3,2413.2,109.8,2669.8,1646.6,589.5,1996.4,2588.1,178.7,82.9,15.2
0.277703,390.8,51.7,2428.7,101.9,2853.0,99.2,586.8,2002,2587.9,178.9,82.8,16.2
0.279703,393.5,49.7,2443.8,99.9,2865.0,139.4,584.1,2007.7,2587.8,179,82.7,17.1
0.281703,396.8,49.7,2455.0,102.7,2734.4,1667.5,581.2,2013.6,2587.7,179.1,82.5,18.1
0.283703,400.6,51.8,2463.0,109.6,2560.2,1574.3,578.4,2019.6,2587.8,179.2,82.4,19
0.285703,404.9,54.4,2413.4,1478.0,2469.7,117.3,575.4,2025.7,2587.9,179.4,82.3,19.9
0.287703,409.0,55.5,2329.2,1421.8,2474.9,121.9,572.4,2032,2588.1,179.5,82.2,20.5
0.289703,412.5,54.7,2319.5,1447.2,2476.6,121.1,569.4,2038.4,2588.4,179.6,82.1,20.8
0.291703,414.7,52.7,2385.9,1549.4,2474.1,114.8,566.3,2044.9,2588.8,179.8,82,20.9
0.293703,414.8,49.9,2469.2,107.1,2550.1,1659.8,563.2,2051.5,2589.2,179.9,81.9,20.9
0.295703,413.1,46.6,2464.6,101.1,2816.4,1616.1,560.1,2058.2,2589.7,180.1,81.9,20.9
0.297703,411.1,43.3,2462.2,95.4,2898.1,236.8,556.9,2065,2590.2,180.2,81.9,20.8
0.299703,409.6,41.1,2463.3,90.3,2872.4,233.9,553.6,2072,2590.9,180.4,82,20.9
0.301703,409.1,40.1,2466.2,88.8,2858.1,221.2,550.3,2079,2591.6,180.5,82.1,20.9
0.303703,409.8,40.1,2469.1,95.1,2856.6,223.8,547,2086,2592.4,180.7,82.2,20.8
0.305703,411.6,40.3,2473.6,110.9,2858.1,1128.7,543.7,2093.2,2593.2,180.9,82.2,20.7
0.307703,414.3,40.6,2480.9,128.9,2650.1,1023.8,540.3,2100.4,2594.1,181.1,82.3,20.4
0.309703,418.0,42.1,2484.5,142.5,2587.6,890.2,536.9,2107.7,2595.1,181.3,82.3,19.8
0.311703,423.2,45.3,2477.9,154.5,2632.3,708.2,533.5,2115,2596.1,181.5,82.3,19.1
0.313703,430.3,49.1,2463.5,155.3,2666.3,520.1,530.1,2122.4,2597.2,181.7,82.3,18.2
0.315703,438.5,52.4,2448.3,142.3,2691.2,418.4,526.6,2129.8,2598.3,181.9,82.3,17.4
0.317703,447.2,54.6,2434.5,124.6,2723.0,346.5,523.2,2137.3,2599.5,182.1,82.4,16.8
0.319703,455.7,54.8,2423.2,112.4,2747.3,301.9,519.7,2144.8,2600.8,182.3,82.4,16.4
0.321703,463.1,52.9,2412.8,111.0,2759.1,303.1,516.2,2152.3,2602.1,182.6,82.5,16.3
0.323703,469.8,50.3,2401.6,117.5,2755.4,347.8,512.7,2159.9,2603.5,182.9,82.6,16.2
0.325703,476.5,49.5,2389.7,124.0,2733.7,387.0,509.2,2167.4,2604.9,183.1,82.6,16
0.327703,484.8,51.8,2378.8,123.7,2723.4,375.5,505.6,2175,2606.3,183.4,82.6,15.6
0.329703,495.9,56.4,2370.2,117.4,2732.8,330.9,502.1,2182.5,2607.8,183.7,82.6,14.9
0.331703,509.4,60.9,2364.8,111.7,2750.5,276.8,498.6,2190.1,2609.4,184,82.6,13.9
0.333703,523.0,62.6,2362.3,111.4,2767.3,218.6,495.1,2197.6,2611,184.3,82.7,12.8
0.335703,535.0,61.8,2361.1,116.7,2774.3,168.4,491.6,2205.1,2612.6,184.7,82.7,12
0.337703,545.2,61.0,2358.3,128.2,2671.0,1708.5,488.1,2212.6,2614.3,185,82.8,11.4
0.339703,553.6,61.4,2351.7,151.1,2559.1,1678.7,484.7,2220,2616,185.4,82.9,11.4
0.341703,559.5,62.2,2339.3,196.2,2494.5,1463.6,481.2,2227.4,2617.7,185.7,83,11.8
0.343703,563.5,62.0,2313.5,277.6,2444.4,1164.0,477.8,2234.7,2619.5,186.1,83.1,12.3
0.345703,566.6,60.1,2242.1,351.4,2481.5,939.7,474.3,2242,2621.3,186.5,83.1,12.8
0.347703,570.0,56.6,2169.9,295.6,2578.2,944.3,470.9,2249.2,2623.1,186.9,83.2,13
0.349703,573.7,52.6,2136.2,220.4,2655.4,1005.9,467.6,2256.4,2624.9,187.3,83.3,12.9
0.351703,577.2,49.2,2120.4,167.6,2682.9,1010.4,464.2,2263.4,2626.8,187.8,83.4,12.5
0.353703,580.3,47.5,2110.7,133.7,2662.1,943.8,460.9,2270.4,2628.7,188.2,83.5,12.1
0.355703,583.5,47.5,2102.6,112.9,2623.4,835.5,457.6,2277.3,2630.6,188.7,83.6,11.8
0.357703,587.0,48.5,2095.9,99.8,2599.3,728.2,454.4,2284.1,2632.5,189.1,83.7,11.8
0.359703,590.8,50.4,2091.4,90.4,2604.0,649.9,451.2,2290.8,2634.4,189.6,83.8,12.2
0.361703,594.2,52.4,2089.3,84.5,2621.8,589.0,448,2297.3,2636.4,190.1,83.8,12.9
0.363703,596.7,54.1,2088.1,83.0,2622.7,506.2,444.9,2303.8,2638.3,190.6,83.9,13.8
0.365703,598.7,56.0,2087.3,85.2,2588.1,412.2,441.9,2310.1,2640.3,191.1,83.9,14.5
0.367703,601.1,58.8,2086.7,89.6,2545.4,349.9,438.8,2316.3,2642.3,191.7,84,14.9
0.369703,604.3,63.3,2086.7,95.6,2512.9,318.8,435.9,2322.4,2644.2,192.2,84,14.9
0.371703,608.3,69.5,2087.3,102.3,2494.2,307.9,432.9,2328.3,2646.2,192.8,84,14.8
0.373703,612.7,76.8,2087.4,109.3,2487.3,300.7,430.1,2334.1,2648.2,193.3,84,14.5
0.375703,617.2,83.5,2085.9,118.4,2485.4,289.4,427.3,2339.7,2650.2,193.9,84,14
0.377703,621.3,88.4,2082.8,132.1,2481.7,279.2,424.6,2345.1,2652.1,194.4,84,13.5
0.379703,624.4,90.5,2077.3,151.0,2472.0,276.4,421.9,2350.4,2654.1,195,84,12.7
0.381703,626.4,89.6,2066.9,176.1,2454.7,281.2,419.3,2355.5,2656,195.6,84,11.6
0.383703,627.7,86.5,2049.5,205.3,2433.3,286.2,416.7,2360.4,2658,196.2,84,10.5
0.385703,629.5,84.6,2029.2,225.0,2421.7,285.2,414.2,2365.2,2659.9,196.8,83.9,9.6
0.387703,632.0,87.1,2016.4,225.1,2430.9,286.7,411.8,2369.7,2661.8,197.4,83.9,9
0.389703,634.2,94.0,2012.7,208.5,2459.0,302.0,409.5,2374.1,2663.7,198,83.9,8.9
0.391703,635.6,104.7,2013.9,175.0,2506.0,324.2,407.2,2378.2,2665.5,198.5,83.9,9.1
0.393703,637.0,119.8,2016.2,131.8,2565.7,319.0,405.1,2382.2,2667.4,199.1,83.9,9.6
0.395703,639.2,139.3,2017.6,95.3,2608.5,277.4,403,2385.9,2669.2,199.7,84,9.9
0.397703,640.8,158.0,2017.8,71.9,2627.6,244.0,401,2389.4,2671,200.3,84,10.1
0.399703,638.9,169.1,2017.7,58.2,2638.9,226.2,399,2392.7,2672.8,200.9,84.1,9.9
0.401703,632.0,172.3,2018.7,49.5,2650.3,212.1,397.2,2395.8,2674.5,201.4,84.2,9.6
0.403703,621.3,174.0,2022.4,43.3,2660.8,195.6,395.4,2398.6,2676.2,202,84.2,9.2
0.405703,607.5,178.4,2028.6,38.4,2668.9,178.8,393.7,2401.2,2677.9,202.5,84,8.8
0.407703,589.4,181.6,2035.1,35.2,2676.8,169.3,392.1,2403.6,2679.5,203.1,83.8,8.6
0.409703,565.1,173.3,2039.0,34.7,2689.7,175.9,390.6,2405.7,2681.1,203.6,83.4,8.5
0.411703,536.7,151.2,2039.1,37.9,2714.4,194.6,389.2,2407.6,2682.7,204.1,83,8.4
0.413703,508.4,126.4,2035.2,44.6,2684.0,852.8,387.9,2409.3,2684.2,204.6,82.5,8.4
0.415703,482.8,107.5,2025.4,53.9,2632.8,771.1,386.7,2410.6,2685.7,205.1,82,8.5
0.417703,461.0,92.8,2007.0,63.3,2667.6,688.3,385.5,2411.8,2687.1,205.6,81.6,8.7
0.419703,443.4,77.8,1980.5,68.1,2706.2,303.6,384.5,2412.7,2688.5,206.1,81.2,9
0.421703,430.3,61.8,1953.7,66.9,2697.2,254.6,383.6,2413.3,2689.8,206.5,81,9.5
0.423703,422.2,49.4,1937.4,64.6,2724.4,222.6,382.7,2413.6,2691.1,207,80.8,10.1
0.425703,418.4,42.2,1933.3,64.5,2756.9,196.7,382,2413.7,2692.4,207.5,80.7,10.7
0.427703,416.5,37.6,1932.8,63.8,2775.8,181.5,381.3,2413.5,2693.6,207.9,80.5,11.4
0.429703,414.4,33.7,1931.6,61.5,2786.1,186.6,380.8,2413.1,2694.7,208.4,80.3,12.3
0.431703,412.1,30.5,1934.0,61.5,2789.9,201.5,380.3,2412.4,2695.8,208.8,80.1,13.3
0.433703,409.8,29.0,1944.2,67.6,2780.2,208.9,380,2411.4,2696.8,209.3,79.7,14.4
0.435703,407.4,29.1,1959.6,79.6,2763.6,203.8,379.8,2410.1,2697.8,209.7,79.3,15.2
0.437703,404.5,30.7,1972.9,96.0,2749.9,191.5,379.6,2408.6,2698.7,210.2,78.9,15.7
0.439703,400.8,34.3,1977.0,116.4,2741.9,177.3,379.6,2406.8,2699.5,210.7,78.3,15.6
0.441703,396.8,38.8,1971.3,141.4,2744.5,162.9,379.6,2404.7,2700.3,211.1,77.7,15.3
0.443703,392.6,42.8,1966.8,171.6,2753.9,146.7,379.8,2402.3,2701.1,211.6,77.1,14.6
0.445703,387.5,45.5,1974.3,200.5,2761.7,136.6,380.1,2399.7,2701.7,212.2,76.5,13.9
0.447703,380.4,46.2,1986.1,215.7,2771.1,135.5,380.4,2396.8,2702.3,212.7,75.9,13.1
0.449703,370.6,46.1,1989.6,216.0,2786.5,131.9,380.9,2393.6,2702.9,213.3,75.3,12.2
0.451703,358.6,48.6,1993.5,219.0,2795.6,111.7,381.5,2390.1,2703.4,213.8,74.8,11.2
0.453703,345.7,61.1,2046.4,264.6,2776.0,103.5,382.1,2386.4,2703.8,214.5,74.3,10.1
0.455703,337.5,84.9,2189.0,322.0,2745.1,127.6,382.9,2382.4,2704.1,215.1,73.9,9.1
0.457703,346.0,100.1,2324.8,247.9,2736.4,132.9,383.8,2378.1,2704.4,215.8,73.9,8.2
0.459703,374.0,88.5,2368.1,155.1,2630.5,1685.7,384.8,2373.5,2704.6,0,74.3,7.3
0.461703,395.8,64.0,2375.7,118.4,2594.8,1589.5,385.8,2368.7,2704.8,0,75,6.4
0.463703,401.2,47.4,2373.5,107.1,2600.8,1519.6,387,2363.6,2704.9,0,76,5.6
0.465703,398.2,38.8,2367.8,107.4,2617.2,1520.5,388.3,2358.2,2704.9,0,77,5
0.467703,392.4,34.7,2364.3,116.4,2624.9,1490.6,389.6,2352.6,2704.8,0,78,4.7
0.469703,386.3,32.9,2369.9,126.9,2624.7,1381.0,391.1,2346.7,2704.7,0,78.9,4.9
0.471703,381.7,32.3,2384.4,126.6,2643.1,1262.7,392.6,2340.5,2704.5,0,79.8,5.5
0.473703,379.6,30.7,2400.1,112.9,2720.2,1220.7,394.3,2334.1,2704.2,0,80.8,6.2
0.475703,378.6,25.6,2413.9,97.3,2776.0,285.9,396,2327.4,2703.9,0,81.9,6.8
0.477703,375.6,18.7,2428.2,89.6,2756.0,276.5,397.8,2320.5,2703.5,0,83,7.1
0.479703,372.1,14.1,2440.7,87.7,2749.6,287.2,399.7,2313.3,2703,0,83.9,6.9
0.481703,370.2,12.0,2448.9,86.2,2757.7,321.9,401.7,2305.9,2702.5,0,84.5,6.5
0.483703,370.1,11.2,2454.1,83.1,2791.7,360.8,403.8,2298.3,2701.9,0,84.8,6
0.485703,371.2,11.3,2456.5,77.2,2828.1,1199.8,406,2290.4,2701.2,0,84.7,5.5
0.487703,372.2,12.5,2454.8,67.8,2749.9,1409.0,408.2,2282.3,2700.5,0,84.2,5
0.489703,371.8,15.0,2451.1,57.0,2718.4,1648.5,410.6,2273.9,2699.7,0,83.4,4.6
0.491703,369.2,19.4,2451.0,48.9,2709.8,1819.2,413,2265.3,2698.8,0,82.4,4.1
0.493703,364.7,26.3,2455.7,44.5,2713.7,1972.0,415.5,2256.5,2697.8,0,81.1,3.7
0.495703,357.8,35.8,2462.2,41.7,2742.0,2368.3,418,2247.5,2696.8,0,79.8,3.4
0.497703,349.2,44.7,2467.1,41.0,2835.0,3402.8,420.7,2238.3,2695.7,0,78.7,3.4
0.499703,342.9,50.5,2469.4,45.4,2880.1,98.3,423.4,2228.9,2694.6,0,77.8,3.7
0.501703,339.7,56.0,2472.7,55.0,2874.6,104.2,426.2,2219.2,2693.4,0,77.2,4.3
0.503703,337.0,62.7,2476.2,62.6,2868.8,85.2,429,2209.4,2692.1,0,76.9,5
0.505703,331.1,67.7,2474.6,70.2,2867.2,70.1,431.9,2199.4,2690.7,237.9,76.9,5.8
0.507703,320.5,66.3,2467.2,85.8,2867.5,68.6,434.9,2189.2,2689.3,238.7,77.1,6.6
0.509703,310.5,59.4,2459.3,107.1,2868.8,80.4,437.9,2178.9,2687.9,239.5,77.6,7.6
0.511703,304.9,53.8,2459.5,119.7,2823.9,1573.1,441,2168.3,2686.3,240.2,78.1,8.6
0.513703,302.0,52.0,2467.4,111.6,2719.3,1550.5,444.2,2157.6,2684.7,240.9,78.7,9.8
0.515703,299.4,53.1,2474.5,93.5,2617.4,1644.5,447.4,2146.8,2683.1,241.6,79.1,10.9
0.517703,295.1,55.3,2480.2,85.7,2547.2,1723.7,450.6,2135.8,2681.4,242.3,79.5,11.8
0.519703,288.0,56.0,2487.5,100.2,2540.5,1581.3,453.9,2124.6,2679.6,242.9,79.7,12.8
