time,f1,b1,f2,b2,f3,b3,f1p,f2p,f3p,f0,intensity,harmonicity
0.025656,556.6,87.0,901.5,201.2,2537.4,455.8,486.5,1279.6,2542.7,194.6,78.4,2.1
0.027656,568.6,74.8,932.6,209.5,2555.1,420.4,486.5,1279.8,2542.8,194.7,79.1,2
0.029656,584.2,67.3,961.8,191.0,2580.1,367.1,486.5,1280.3,2542.9,194.7,79.6,2
0.031656,597.5,62.4,981.8,161.4,2597.5,304.0,486.5,1280.9,2543,194.7,80.2,2.2
0.033656,603.8,60.3,995.7,138.8,2605.5,256.3,486.5,1281.7,2543.2,194.8,80.7,2.9
0.035656,604.8,61.3,1009.9,130.7,2608.5,231.7,486.5,1282.6,2543.5,194.8,81.1,4.2
0.037656,604.3,64.3,1030.0,137.1,2605.9,223.1,486.5,1283.7,2543.7,194.9,81.5,6.4
0.039656,604.0,65.2,1054.6,151.4,2594.0,218.6,486.5,1285,2544,194.9,81.9,9
0.041656,603.2,61.5,1081.8,162.9,2572.2,206.1,486.5,1286.5,2544.4,194.9,82.3,11.7
0.043656,602.1,54.4,1107.5,161.5,2548.4,186.0,486.5,1288.2,2544.8,194.9,82.6,14
0.045656,601.5,47.8,1130.5,149.1,2529.7,168.2,486.5,1290,2545.2,195,82.9,15.7
0.047656,601.9,43.7,1152.4,134.3,2513.3,158.3,486.6,1291.9,2545.7,195,83.2,16.9
0.049656,602.5,42.9,1169.8,125.9,2497.5,160.7,486.6,1294.1,2546.2,195,83.3,17.8
0.051656,602.9,44.2,1182.9,125.0,2480.5,182.2,486.6,1296.4,2546.7,195,83.5,18.5
0.053656,602.7,46.7,1194.0,129.6,2464.5,221.2,486.6,1298.9,2547.3,195,83.6,18.9
0.055656,602.7,50.6,1207.9,138.7,2457.6,257.8,486.6,1301.5,2547.9,195,83.6,19.1
0.057656,603.0,55.3,1226.7,150.5,2461.8,287.6,486.7,1304.3,2548.6,194.9,83.6,19.1
0.059656,604.0,58.9,1249.6,159.9,2471.2,309.2,486.7,1307.2,2549.3,194.9,83.6,18.7
0.061656,605.9,61.3,1280.9,161.3,2484.2,325.8,486.7,1310.3,2550,194.9,83.5,18.2
0.063656,607.4,63.0,1317.8,149.0,2501.8,332.3,486.8,1313.5,2550.8,194.8,83.4,17.6
0.065656,607.2,64.9,1350.0,127.7,2515.8,332.4,486.8,1316.9,2551.6,194.8,83.2,16.9
0.067656,605.0,67.8,1374.6,103.7,2517.7,336.5,486.9,1320.5,2552.4,194.7,83,16.2
0.069656,601.7,72.2,1390.8,83.8,2511.9,346.7,486.9,1324.2,2553.2,194.6,82.7,15.3
0.071656,597.2,78.6,1402.8,69.3,2507.9,372.8,487,1328,2554.1,194.5,82.4,14.3
0.073656,591.9,88.9,1412.8,61.4,2514.1,408.0,487,1332,2555,194.4,81.9,13.1
0.075656,586.3,105.5,1423.1,60.0,2529.5,427.2,487.1,1336.1,2556,194.3,81.4,11.9
0.077656,581.1,132.4,1438.3,64.1,2545.8,423.5,487.2,1340.3,2556.9,194.2,80.8,10.4
0.079656,577.6,168.8,1460.7,70.6,2556.9,411.2,487.3,1344.7,2557.9,194.1,80.1,8.7
0.081656,574.9,214.0,1490.0,73.2,2566.4,402.1,487.4,1349.1,2559,193.9,79.2,7
0.083656,569.8,265.3,1515.0,69.2,2576.4,395.0,487.5,1353.7,2560,193.8,78.1,5.6
0.085656,560.8,329.5,1528.0,64.2,2574.8,381.3,487.6,1358.5,2561.1,193.6,76.9,4.4
0.087656,542.2,407.7,1531.0,63.4,2538.3,393.5,487.7,1363.3,2562.1,193.5,75.7,3.2
0.089656,510.5,453.1,1529.7,71.2,2451.8,468.2,487.8,1368.3,2563.2,193.3,74.5,2.1
0.091656,479.2,443.2,1531.7,95.2,2291.7,547.6,488,1373.3,2564.4,193.1,73.4,1.4
0.093656,462.0,402.2,1542.5,140.7,2148.0,525.5,488.1,1378.5,2565.5,192.9,72.7,1.4
0.095656,453.7,355.6,1565.2,191.3,2110.4,513.4,488.3,1383.8,2566.7,192.7,72.3,2.3
0.097656,447.3,303.9,1596.1,213.2,2184.3,552.6,488.5,1389.1,2567.8,192.5,72.3,4.6
0.099656,438.8,250.8,1610.4,206.3,2329.3,530.5,488.7,1394.6,2569,192.3,72.4,7.5
0.101656,427.6,200.4,1605.5,204.4,2456.4,419.5,488.9,1400.1,2570.2,192,72.5,10.5
0.103656,417.0,164.0,1594.1,218.4,2521.1,319.0,489.1,1405.7,2571.4,191.8,72.6,12.9
0.105656,409.1,143.4,1591.8,248.5,2539.2,270.5,489.3,1411.4,2572.6,191.5,72.6,15
0.107656,403.3,131.4,1603.6,294.1,2528.5,262.0,489.6,1417.2,2573.9,191.3,72.4,20.9
0.109656,398.3,123.6,1612.3,333.5,2496.2,276.9,489.8,1423.1,2575.1,191,72,27.1
0.111656,392.6,122.4,1587.6,332.1,2445.5,283.9,490.1,1429,2576.3,190.7,71.5,28.9
0.113656,386.3,135.1,1533.2,273.9,2401.3,261.7,490.4,1435,2577.5,190.5,70.9,21.3
0.115656,379.3,162.4,1486.2,204.0,2384.0,231.1,490.7,1441,2578.8,190.2,70.2,-1.1
0.117656,369.0,199.1,1453.3,146.1,2385.0,200.4,491,1447.1,2580,189.9,69.5,-42.3
0.119656,355.5,221.1,1433.1,106.4,2391.9,173.9,491.4,1453.2,2581.3,189.7,69,-93.8
0.121656,342.5,205.9,1419.9,79.3,2398.7,153.9,491.7,1459.4,2582.5,189.4,68.6,-145.2
0.123656,335.2,164.3,1411.8,65.6,2404.5,150.4,492.1,1465.6,2583.7,189.1,68.4,-186.4
0.125656,332.9,128.8,1407.2,64.6,2413.3,173.1,492.5,1471.9,2584.9,188.9,68.3,-208.6
0.127656,334.3,107.5,1404.5,76.8,2432.6,231.4,492.9,1478.2,2586.2,188.7,68.2,-215.6
0.129656,338.7,98.2,1402.3,105.6,2460.1,308.8,493.4,1484.5,2587.4,188.5,68,-213.3
0.131656,345.4,95.4,1397.7,165.6,2484.4,391.7,493.9,1490.8,2588.6,188.3,67.8,-206.7
0.133656,352.5,97.9,1389.1,280.2,2495.1,492.9,494.3,1497.2,2589.8,188.2,67.4,-201
0.135656,359.3,106.3,1381.2,465.3,2493.4,639.7,494.9,1503.5,2590.9,188.1,66.9,-200
0.137656,365.4,119.4,1385.7,702.5,2485.5,851.8,495.4,1509.9,2592.1,188.1,66.3,-200
0.139656,367.3,129.6,1404.0,825.9,2519.6,1049.6,496,1516.2,2593.3,188.1,65.5,-200
0.141656,363.2,134.0,1408.7,748.8,2653.6,1098.5,496.5,1522.6,2594.4,188.1,64.6,-200
0.143656,355.6,133.7,1393.1,598.7,2782.1,877.1,497.1,1528.9,2595.5,188.2,63.6,-200
0.145656,347.1,131.9,1370.6,471.5,2792.6,647.3,497.8,1535.3,2596.6,188.3,62.5,-200
0.147656,338.2,130.3,1344.4,364.9,2793.8,511.7,498.4,1541.6,2597.7,188.6,61.4,-200
0.149656,328.5,133.1,1323.9,284.8,2812.0,422.4,499.1,1547.9,2598.7,188.8,60.2,-200
0.151656,313.2,146.2,1315.9,228.9,2839.7,365.3,499.8,1554.2,2599.7,189.1,59.1,-200
0.153656,290.2,170.1,1319.9,197.7,2860.2,353.9,500.6,1560.4,2600.7,189.5,58,-200
0.155656,267.9,197.3,1324.3,188.1,2866.2,399.3,501.3,1566.6,2601.7,0,57.1,-200
0.157656,254.1,234.5,1322.9,206.8,2868.9,501.4,502.1,1572.8,2602.7,0,56.3,-200
0.159656,250.6,285.7,1325.0,261.0,2889.6,590.7,502.9,1578.9,2603.6,0,55.5,-200
0.161656,259.5,337.9,1352.1,350.1,2922.0,619.9,503.8,1585,2604.5,0,54.6,-200
0.163656,287.3,340.5,1414.5,406.4,2931.6,614.3,504.7,1591,2605.3,0,53.5,-200
0.165656,320.8,298.8,1467.3,372.2,2909.8,592.0,505.6,1596.9,2606.2,0,52.2,-200
0.167656,354.0,269.9,1492.3,320.8,2886.4,561.0,506.5,1602.8,2607,0,50.7,-200
0.169656,385.6,266.6,1503.8,303.8,2890.3,552.2,507.5,1608.6,2607.7,0,49,-200
0.171656,416.2,275.5,1517.3,319.9,2923.9,582.8,508.5,1614.4,2608.5,0,47.1,-200
0.173656,439.8,293.9,1543.7,367.6,2983.0,682.1,509.5,1620.1,2609.2,0,45,-200
0.175656,454.2,333.7,1593.8,446.9,3065.1,933.1,510.6,1625.6,2609.8,0,42.8,-200
0.177656,464.2,415.4,1676.8,557.4,3058.5,1825.1,511.7,1631.2,2610.4,0,40.7,-200
0.179656,478.9,494.0,1762.5,668.1,2720.5,2012.2,512.8,1636.6,2611,0,39.3,-200
0.181656,505.6,406.5,1747.4,701.8,2777.4,957.2,513.9,1641.9,2611.6,0,39.8,-200
0.183656,543.5,288.3,1778.8,751.6,2833.2,280.9,515.1,1647.1,2612.1,0,43,-200
0.185656,565.3,237.1,1960.2,1315.7,2820.8,192.6,516.4,1652.2,2612.5,0,47.4,-200.9
0.187656,544.5,175.8,1869.2,1392.7,2759.1,145.5,517.6,1657.3,2612.9,0,51.2,-206.5
0.189656,530.0,143.0,1822.4,1017.1,2739.4,86.5,518.9,1662.2,2613.3,0,54.5,-212.8
0.191656,534.2,147.7,1838.5,917.0,2734.7,66.1,520.2,1667,2613.7,0,57.4,-215.1
0.193656,546.9,164.1,1862.4,897.5,2734.5,54.6,521.6,1671.7,2613.9,0,59.8,-208.3
0.195656,557.9,174.7,1859.5,872.7,2734.9,45.9,522.9,1676.2,2614.2,0,61.9,-186.9
0.197656,564.3,183.5,1848.5,868.4,2736.2,39.9,524.4,1680.7,2614.4,0,63.7,-147.2
0.199656,562.3,198.1,1853.7,919.2,2738.7,37.4,525.8,1685,2614.6,0,65.3,-97.6
0.201656,543.8,224.1,1893.5,1062.7,2742.5,38.0,527.3,1689.2,2614.7,0,67,-48
0.203656,501.7,240.4,2002.9,1263.7,2747.3,41.6,528.8,1693.2,2614.8,0,68.7,-8.2
0.205656,458.6,211.5,2155.5,1301.7,2752.4,47.7,530.3,1697.1,2614.8,0,70.4,13.3
0.207656,440.3,174.1,2199.8,1180.6,2757.3,59.5,531.9,1700.9,2614.8,0,72,20.2
0.209656,440.6,155.5,2100.9,1056.1,2761.5,82.9,533.5,1704.6,2614.7,0,73.3,18.1
0.211656,445.9,142.4,2015.4,854.0,2767.1,116.7,535.2,1708,2614.6,0,74.5,11.9
0.213656,452.9,129.8,2026.0,646.2,2761.1,129.3,536.8,1711.4,2614.5,0,75.4,6.4
0.215656,459.5,114.7,2075.2,505.9,2742.9,139.8,538.5,1714.6,2614.3,0,76,5.3
0.217656,469.1,97.8,2119.7,415.7,2725.9,168.7,540.3,1717.7,2614,0,76.5,4.8
0.219656,482.6,87.5,2152.8,341.0,2720.9,208.6,542,1720.6,2613.7,216.5,76.8,4.2
0.221656,498.0,87.5,999.1,10321.3,2178.6,250.6,543.8,1723.3,2613.4,217.1,77.1,3.7
0.223656,515.0,96.4,2190.5,176.0,2743.3,220.8,545.7,1725.9,2613,217.7,77.3,3.5
0.225656,536.6,108.1,2190.6,137.5,2748.9,200.4,547.5,1728.3,2612.6,218.3,77.4,3.8
0.227656,565.1,116.3,2181.7,130.2,2746.4,183.5,549.4,1730.6,2612.1,218.9,77.5,4.8
0.229656,592.7,115.1,2164.9,153.5,2737.1,173.3,551.3,1732.7,2611.6,219.4,77.6,6
0.231656,616.3,103.8,2138.8,211.2,2723.4,169.3,553.3,1734.6,2611.1,220,77.7,7.4
0.233656,634.3,85.8,2107.2,292.8,2478.6,4196.1,555.3,1736.4,2610.5,220.5,77.9,8.6
0.235656,647.5,68.3,2080.2,359.3,2552.9,2483.5,557.3,1738,2609.8,221,78.2,9.4
0.237656,657.2,54.8,2062.2,380.4,2553.8,1926.5,559.3,1739.4,2609.1,221.5,78.7,10
0.239656,663.4,47.0,2042.2,362.7,2615.2,1922.8,561.4,1740.7,2608.4,222,79.3,10.5
0.241656,667.7,41.7,1999.4,335.6,2626.0,182.3,563.5,1741.8,2607.7,222.5,79.9,10.9
0.243656,670.5,36.5,1938.1,297.1,2593.8,153.0,565.6,1742.8,2606.9,222.9,80.7,11.1
0.245656,672.3,30.7,1882.7,244.9,2574.0,130.3,567.7,1743.5,2606,223.4,81.6,11.2
0.247656,674.3,24.8,1843.0,189.6,2561.0,120.6,569.9,1744.1,2605.1,223.9,82.5,10.9
0.249656,677.6,20.2,1822.5,146.2,2551.6,124.2,572.1,1744.5,2604.2,224.3,83.5,10.5
0.251656,682.3,17.0,1814.6,114.0,2543.2,138.3,574.3,1744.8,2603.3,224.8,84.4,10.1
0.253656,687.1,15.2,1813.6,93.8,2536.4,156.9,576.5,1744.9,2602.3,225.2,85.2,9.9
0.255656,690.8,14.4,1813.5,82.2,2531.0,171.9,578.8,1744.8,2601.3,225.7,86,10.1
0.257656,694.0,14.2,1811.2,73.9,2527.2,179.3,581.1,1744.5,2600.2,226.1,86.6,10.7
0.259656,696.8,14.7,1806.7,67.4,2527.8,185.1,583.4,1744,2599.1,226.6,87.1,11.4
0.261656,699.7,15.7,1801.1,62.2,2535.5,202.7,585.7,1743.4,2598,227,87.5,12.3
0.263656,702.7,17.4,1796.6,58.7,2552.5,238.1,588,1742.7,2596.9,227.5,87.7,13
0.265656,705.6,19.7,1794.2,56.0,2577.4,285.3,590.4,1741.7,2595.7,227.9,87.8,13.5
0.267656,708.9,22.6,1792.9,54.6,2607.3,348.7,592.8,1740.6,2594.5,228.3,87.8,13.8
0.269656,712.5,25.9,1792.0,57.3,2634.2,446.0,595.2,1739.3,2593.2,228.8,87.7,14
0.271656,716.5,30.2,1789.8,67.5,2074.8,9485.5,597.6,1737.8,2592,229.2,87.6,14.1
0.273656,720.6,35.7,1782.4,86.9,2454.0,4696.9,600,1736.2,2590.7,229.6,87.4,14.3
0.275656,725.0,41.7,1766.1,109.6,2449.1,3962.2,602.5,1734.4,2589.4,230,87.1,14.5
0.277656,730.3,47.7,1739.3,127.2,2472.0,4392.8,605,1732.5,2588.1,230.4,86.9,14.9
0.279656,736.1,52.4,1707.9,134.2,2464.5,5721.3,607.4,1730.3,2586.8,230.8,86.7,15.3
0.281656,742.3,55.7,1491.9,10324.3,1674.1,131.4,609.9,1728.1,2585.4,231.2,86.5,15.6
0.283656,748.4,57.7,1644.4,119.7,2588.6,556.1,612.4,1725.6,2584,231.6,86.4,15.8
0.285656,753.7,59.0,1622.6,105.6,2667.6,499.4,614.9,1723,2582.7,231.9,86.3,16
0.287656,758.9,60.5,1606.1,95.1,2731.4,449.2,617.4,1720.3,2581.3,232.3,86.2,16
0.289656,764.0,62.7,1592.6,89.8,2761.5,427.2,620,1717.4,2579.9,232.6,86.1,15.9
0.291656,769.9,65.4,1576.3,86.8,2760.6,431.0,622.5,1714.3,2578.4,233,86,15.8
0.293656,775.0,67.4,1556.5,86.6,2741.2,450.9,625,1711.1,2577,233.3,85.9,15.6
0.295656,777.0,68.2,1534.8,92.5,2719.0,493.4,627.6,1707.8,2575.6,233.6,85.9,15.4
0.297656,775.1,66.8,1507.9,106.9,2686.9,600.5,630.1,1704.3,2574.2,233.9,85.8,15
0.299656,770.8,62.5,1475.5,118.3,2603.3,768.7,632.7,1700.7,2572.7,234.2,85.8,14.6
0.301656,766.2,56.3,1443.5,110.0,2475.4,757.6,635.2,1696.9,2571.3,234.5,85.8,14.2
0.303656,762.4,50.7,1425.4,86.0,2455.4,635.1,637.8,1693,2569.8,234.8,85.8,13.9
0.305656,759.0,46.7,1419.8,62.5,2492.6,500.5,640.3,1689,2568.4,235.1,85.8,13.9
0.307656,754.8,43.7,1418.9,45.5,2522.2,349.2,642.9,1684.8,2567,235.4,85.8,14.2
0.309656,749.1,41.7,1418.8,38.0,2519.2,255.4,645.4,1680.5,2565.6,235.7,85.8,14.7
0.311656,742.4,40.1,1418.0,37.6,2495.0,223.9,648,1676.1,2564.2,235.9,85.7,15
0.313656,734.6,37.6,1415.8,41.3,2458.2,213.9,650.5,1671.5,2562.8,236.2,85.5,15
0.315656,726.9,34.3,1413.1,46.9,2424.5,196.3,653.1,1666.9,2561.4,236.5,85.2,14.4
0.317656,719.2,31.1,1410.4,55.2,2404.5,168.2,655.6,1662.1,2560,236.9,84.7,13.2
0.319656,712.8,30.3,1408.0,68.7,2398.9,142.8,658.1,1657.2,2558.6,237.2,84,11.7
0.321656,708.4,34.6,1405.7,92.5,2399.6,124.4,660.6,1652.3,2557.3,237.5,83,10
0.323656,707.5,48.4,1401.0,123.4,2401.2,113.8,663.1,1647.2,2556,237.9,81.8,8.4
0.325656,710.6,74.6,1387.6,144.1,2400.6,111.4,665.6,1642,2554.7,238.3,80.4,6.8
0.327656,717.7,117.2,1363.9,148.9,2398.4,122.1,668.1,1636.7,2553.4,238.7,78.7,5
0.329656,729.5,167.6,1342.6,148.4,2396.4,150.5,670.6,1631.3,2552.1,239.1,76.8,3.1
0.331656,747.7,219.2,1329.6,156.4,2396.4,204.9,673,1625.9,2550.9,239.5,75,1.5
0.333656,764.1,274.5,1321.8,177.8,2405.8,293.3,675.5,1620.3,2549.7,240,73.2,0.4
0.335656,766.8,348.9,1312.1,204.4,2436.4,405.6,677.9,1614.7,2548.5,240.5,71.7,1.2
0.337656,746.7,422.6,1299.3,221.2,2482.2,487.7,680.3,1609,2547.4,241,70.5,7.7
0.339656,709.7,428.4,1288.8,227.6,2490.4,490.0,682.7,1603.3,2546.3,241.6,69.8,15.7
0.341656,677.3,389.5,1281.3,243.7,2450.8,461.1,685.1,1597.4,2545.2,242.1,69.3,19.6
0.343656,654.2,356.7,1278.0,267.8,2393.2,446.2,687.4,1591.6,2544.2,242.7,69,14.2
0.345656,630.6,339.9,1279.2,285.7,2338.4,464.2,689.8,1585.6,2543.2,243.3,68.7,-7.6
0.347656,597.2,332.7,1282.6,293.2,2283.3,517.2,692.1,1579.6,2542.3,243.9,68.5,-53.1
0.349656,553.2,329.8,1285.4,289.3,2227.1,594.8,694.4,1573.5,2541.3,244.5,68.3,-109.6
0.351656,508.1,328.8,1288.4,275.3,2176.7,692.0,696.6,1567.4,2540.5,245,68.2,-162
0.353656,475.1,329.2,1295.2,254.4,2152.4,805.8,698.9,1561.3,2539.7,245.6,68.2,-195.2
0.355656,465.5,311.4,1299.2,233.4,2201.6,788.5,701.1,1555.1,2538.9,246.1,68.5,-195
0.357656,477.2,270.0,1294.1,230.6,2278.8,603.9,703.3,1548.9,2538.2,246.7,69,-161.2
0.359656,505.6,231.8,1278.6,268.1,2326.5,453.3,705.4,1542.7,2537.5,247.1,69.7,-108.4
0.361656,540.2,205.2,1254.3,341.5,2359.6,393.8,707.5,1536.4,2536.9,247.6,70.7,-51.4
0.363656,573.1,181.0,1239.0,418.4,2401.4,395.8,709.6,1530.2,2536.3,248,71.8,-5.2
0.365656,594.9,156.3,1261.1,448.2,2455.1,402.3,711.7,1523.9,2535.8,248.4,73.1,17.8
0.367656,607.1,134.4,1314.0,429.9,2495.0,354.1,713.7,1517.6,2535.3,248.7,74.3,25
0.369656,613.0,119.8,1374.3,385.1,2505.9,280.3,715.7,1511.3,2534.9,249,75.4,23.1
0.371656,616.8,112.5,1427.1,333.9,2507.2,220.3,717.7,1505,2534.5,249.3,76.3,17
0.373656,621.2,110.4,1470.5,281.3,2511.5,177.2,719.6,1498.7,2534.3,249.5,77.1,11.4
0.375656,626.7,112.4,1497.6,233.7,2521.3,149.2,721.6,1492.4,2534,249.6,77.6,10.2
0.377656,633.8,117.3,1508.2,189.1,2535.5,127.9,723.4,1486.1,2533.9,249.7,77.8,9.3
0.379656,641.3,123.4,1505.3,153.4,2548.7,111.9,725.2,1479.9,2533.7,249.8,77.9,8.1
0.381656,649.3,129.8,1497.0,124.2,2558.2,99.9,727,1473.6,2533.7,249.8,77.8,7
0.383656,655.0,134.9,1489.8,101.1,2563.2,91.9,728.8,1467.4,2533.7,249.8,77.6,6.2
0.385656,651.8,137.4,1486.2,84.1,2565.4,87.1,730.5,1461.2,2533.8,249.7,77.3,6.2
0.387656,633.0,133.1,1486.0,72.1,2567.3,85.9,732.2,1455.1,2534,249.6,77.2,6.7
0.389656,607.3,120.6,1489.5,66.2,2571.1,89.0,733.8,1449,2534.2,249.5,77.2,7.6
0.391656,586.7,105.5,1496.4,65.9,2581.0,96.5,735.5,1442.9,2534.5,249.3,77.4,8.6
0.393656,577.7,94.6,1503.8,69.3,2601.6,107.1,737,1436.9,2534.8,249.2,77.6,9.5
0.395656,578.4,90.9,1507.4,71.4,2633.2,109.1,738.5,1431,2535.2,249,77.8,10.2
0.397656,586.0,93.4,1505.9,67.8,2668.4,91.4,740,1425.1,2535.7,248.7,78,10.7
0.399656,598.5,98.2,1500.9,59.2,2691.5,69.1,741.5,1419.2,2536.3,248.5,78.1,11.2
0.401656,616.7,101.8,1494.9,49.8,2702.6,54.9,742.9,1413.5,2536.9,248.3,78.1,11.5
0.403656,640.5,101.1,1489.7,43.0,2704.0,49.7,744.2,1407.8,2537.6,248,78.2,11.8
0.405656,666.6,94.0,1485.9,38.9,2700.0,48.0,745.5,1402.1,2538.4,247.7,78.3,11.8
0.407656,692.0,79.9,1483.1,35.8,2695.2,44.5,746.8,1396.6,2539.2,247.5,78.6,11.7
0.409656,710.1,64.3,1480.3,32.7,2692.8,38.5,748,1391.1,2540.1,247.2,78.9,11.5
0.411656,721.6,52.3,1476.6,29.9,2692.5,32.1,749.2,1385.7,2541.1,246.9,79.5,11.2
0.413656,731.8,43.3,1473.2,27.2,2694.5,26.2,750.3,1380.4,2542.2,246.6,80.2,10.8
0.415656,741.0,36.2,1472.4,25.2,2699.3,22.4,751.4,1375.2,2543.3,246.4,81.1,10.4
0.417656,748.6,30.1,1473.3,23.2,2706.0,21.8,752.5,1370.1,2544.5,246.1,82,9.7
0.419656,753.6,26.1,1472.8,20.9,2710.7,26.6,753.5,1365.1,2545.8,245.8,82.9,9
0.421656,757.7,24.8,1471.3,18.7,2710.2,39.1,754.4,1360.2,2547.1,245.5,83.8,8.4
0.423656,761.9,26.1,1470.8,16.9,2703.8,59.5,755.3,1355.4,2548.5,245.2,84.5,8.1
0.425656,765.8,29.3,1471.5,15.9,2694.9,76.5,756.2,1350.7,2550,244.9,85,8.3
0.427656,768.7,33.6,1472.6,15.4,2687.3,80.2,757,1346.1,2551.5,244.7,85.4,8.8
0.429656,770.3,38.2,1473.3,15.4,2681.4,72.4,757.8,1341.7,2553.2,244.4,85.6,9.7
0.431656,771.2,42.4,1473.2,15.7,2676.5,63.2,758.5,1337.3,2554.9,244.1,85.7,10.7
0.433656,772.6,46.8,1471.8,16.1,2673.7,56.7,759.2,1333.1,2556.6,243.8,85.6,11.6
0.435656,774.9,51.0,1469.1,16.3,2674.1,52.8,759.9,1329,2558.4,243.5,85.5,12.5
0.437656,778.4,54.9,1465.1,15.9,2676.3,48.5,760.5,1325,2560.3,243.3,85.4,13.3
0.439656,782.9,58.4,1460.2,15.5,2677.7,44.2,761,1321.2,2562.3,243,85.3,14.2
0.441656,788.4,61.7,1455.0,15.3,2677.1,41.7,761.5,1317.5,2564.3,242.7,85.1,15.1
0.443656,796.2,65.7,1449.6,15.3,2673.7,41.0,762,1313.9,2566.4,242.5,85,15.8
0.445656,805.1,69.4,1445.3,15.6,2668.2,42.0,762.4,1310.4,2568.6,242.2,84.9,16.3
0.447656,812.5,71.2,1442.9,15.8,2662.9,44.5,762.8,1307.1,2570.8,242,84.8,16.6
0.449656,815.1,70.7,1442.6,15.9,2661.4,48.1,763.1,1304,2573.1,241.8,84.8,16.7
0.451656,814.0,69.7,1443.0,16.0,2663.9,53.5,763.4,1301,2575.4,241.5,84.8,16.8
0.453656,812.0,70.0,1442.3,16.0,2668.2,61.1,763.7,1298.1,2577.8,241.3,84.8,17
0.455656,810.9,71.5,1440.2,15.9,2671.2,67.0,763.9,1295.4,2580.3,241.1,84.9,17.3
0.457656,812.0,73.9,1438.4,15.5,2670.1,63.1,764,1292.8,2582.8,240.9,85,17.8
0.459656,815.0,76.2,1438.4,15.1,2665.3,49.5,764.2,1290.4,2585.3,240.6,85,18.3
0.461656,818.6,76.5,1440.5,14.4,2659.7,36.0,764.3,1288.1,2588,240.4,85.2,18.8
0.463656,819.8,74.2,1442.8,13.6,2656.1,29.2,764.3,1286,2590.6,240.2,85.3,19
0.465656,818.3,71.6,1443.2,12.9,2654.3,28.4,764.3,1284,2593.4,240,85.5,18.9
0.467656,815.0,69.9,1441.5,12.3,2652.2,31.4,764.3,1282.2,2596.2,239.9,85.6,18.4
0.469656,810.5,68.6,1438.8,11.7,2649.1,36.7,764.2,1280.5,2599,239.7,85.7,17.6
0.471656,805.3,67.0,1436.4,11.2,2647.2,42.6,764.1,1279.1,2601.8,239.5,85.8,16.9
0.473656,799.2,64.9,1434.9,11.1,2649.4,48.6,763.9,1277.7,2604.8,239.3,85.8,16.3
0.475656,793.3,62.8,1434.2,11.4,2654.8,53.6,763.7,1276.5,2607.7,239.1,85.8,16.3
0.477656,787.9,61.0,1433.4,11.9,2658.5,57.5,763.5,1275.5,2610.7,238.9,85.7,16.6
0.479656,784.2,60.0,1431.8,12.4,2656.2,60.4,763.2,1274.7,2613.8,238.8,85.6,17.1
0.481656,782.9,59.9,1429.8,12.6,2649.8,62.7,762.9,1274,2616.8,238.6,85.5,17.7
0.483656,783.3,60.2,1428.6,12.8,2643.2,64.1,762.6,1273.4,2619.9,238.4,85.3,18.3
0.485656,784.3,60.6,1428.7,12.8,2640.3,63.2,762.2,1273.1,2623.1,238.2,85.2,18.7
0.487656,784.1,60.4,1429.8,12.9,2641.4,59.3,761.8,1272.9,2626.3,238.1,85,19.2
0.489656,782.3,58.9,1430.7,13.0,2644.6,55.0,761.4,1272.8,2629.5,237.9,84.8,19.7
0.491656,779.2,56.7,1431.2,13.5,2648.1,53.7,760.9,1272.9,2632.7,237.7,84.6,20
0.493656,775.2,54.4,1431.3,14.4,2651.3,55.7,760.4,1273.2,2636,237.5,84.5,20
0.495656,770.4,52.9,1431.0,15.7,2653.0,60.5,759.9,1273.6,2639.2,237.3,84.3,19.5
0.497656,763.9,51.5,1429.2,17.3,2653.1,69.7,759.3,1274.2,2642.5,237.1,84.1,18.3
0.499656,756.7,49.2,1425.6,19.2,2651.5,84.2,758.7,1275,2645.8,237,84,16.8
0.501656,750.1,45.9,1421.0,21.4,2649.8,101.6,758.1,1275.9,2649.2,236.8,83.9,15.3
0.503656,743.7,41.6,1416.7,24.1,2648.7,117.3,757.5,1276.9,2652.5,236.6,83.8,14.1
0.505656,737.3,37.3,1413.1,26.8,2646.0,124.0,756.8,1278.2,2655.9,236.4,83.7,13.4
0.507656,730.3,33.2,1408.8,29.6,2639.3,123.1,756.2,1279.5,2659.2,236.2,83.6,13.1
0.509656,723.7,29.6,1402.4,32.4,2630.9,121.8,755.4,1281.1,2662.6,236,83.5,13.1
0.511656,718.3,26.3,1394.9,35.4,2623.1,119.3,754.7,1282.8,2666,235.8,83.3,13.3
0.513656,715.0,23.9,1389.3,38.6,2617.7,109.6,754,1284.6,2669.4,235.7,83,13.6
0.515656,713.6,22.5,1386.6,42.9,2614.1,96.3,753.2,1286.6,2672.8,235.5,82.7,14
0.517656,713.5,21.9,1385.4,49.0,2610.3,83.9,752.4,1288.7,2676.1,235.3,82.2,14.7
0.519656,714.4,22.2,1383.4,57.5,2605.3,76.7,751.6,1291,2679.5,235.1,81.8,15.6
0.521656,715.7,23.4,1379.2,70.7,2600.0,76.4,750.8,1293.4,2682.9,235,81.3,16.5
