time,f1,b1,f2,b2,f3,b3,f1p,f2p,f3p,f0,intensity,harmonicity
0.025906,336.2,63.3,1435.1,3036.5,1992.6,119.9,553,1605.7,1974.8,192.6,80.8,2.6
0.027906,343.7,60.0,1978.4,2191.1,1993.6,127.9,553,1605.9,1975,192.1,81.1,3.7
0.029906,349.7,59.9,1993.5,140.5,2114.2,1444.8,552.9,1606.1,1975.3,191.7,81.3,5.7
0.031906,355.1,60.7,1994.1,148.3,2186.8,1065.0,552.8,1606.5,1975.8,191.2,81.4,8
0.033906,359.8,59.4,1998.4,140.7,2240.0,921.1,552.6,1607,1976.3,190.8,81.5,10.1
0.035906,363.6,55.5,2006.1,126.2,2256.3,934.8,552.5,1607.6,1977,190.3,81.5,11.6
0.037906,365.5,50.8,2009.3,118.0,2199.7,1068.3,552.3,1608.3,1977.8,189.8,81.5,12.9
0.039906,366.4,46.2,2001.7,118.6,2076.0,1215.7,552,1609.1,1978.8,189.4,81.5,14
0.041906,367.4,43.0,1982.0,127.4,1988.3,1293.7,551.7,1610,1979.8,188.9,81.6,15.1
0.043906,368.9,41.1,1944.7,1360.3,1958.7,136.5,551.4,1611.1,1981,188.5,81.6,16.1
0.045906,370.9,39.0,1857.9,1332.5,1941.7,142.1,551.1,1612.2,1982.3,188,81.8,17
0.047906,372.7,37.0,1754.3,1231.2,1936.9,142.9,550.7,1613.4,1983.7,187.6,81.9,18
0.049906,374.5,36.1,1672.1,1142.4,1939.4,140.2,550.3,1614.7,1985.3,187.2,82,18.9
0.051906,376.1,36.9,1611.3,1088.8,1946.1,136.4,549.9,1616.2,1986.9,186.8,82.2,19.7
0.053906,377.2,39.1,1565.1,1034.1,1955.4,134.3,549.4,1617.7,1988.7,186.4,82.3,20.4
0.055906,378.0,42.3,1538.1,958.5,1964.5,135.4,548.9,1619.4,1990.6,186,82.4,20.9
0.057906,378.5,45.9,1538.7,888.3,1966.6,140.1,548.4,1621.1,1992.6,185.7,82.4,21.2
0.059906,378.7,49.9,1548.7,838.1,1959.0,145.0,547.8,1623,1994.7,185.3,82.5,21.5
0.061906,378.9,53.3,1538.9,817.1,1944.5,141.8,547.3,1624.9,1996.9,185,82.5,21.6
0.063906,379.5,55.4,1508.2,807.7,1930.4,131.4,546.7,1627,1999.3,184.7,82.5,21.9
0.065906,380.7,57.0,1478.2,802.0,1919.0,122.5,546,1629.1,2001.7,184.4,82.6,22.4
0.067906,382.0,58.1,1467.5,806.5,1911.3,120.3,545.4,1631.3,2004.3,184.1,82.6,23.4
0.069906,383.0,58.3,1467.6,800.9,1906.1,119.1,544.7,1633.7,2007,183.8,82.7,24.6
0.071906,383.3,56.6,1450.6,750.0,1903.5,110.7,544,1636.1,2009.7,183.5,82.7,25.4
0.073906,384.1,54.6,1404.1,652.1,1901.7,96.9,543.3,1638.6,2012.6,183.2,82.8,25.3
0.075906,388.4,56.6,1334.3,499.6,1898.5,86.7,542.5,1641.2,2015.6,183,82.8,23.6
0.077906,400.3,66.3,1284.4,352.9,1893.2,96.0,541.7,1643.9,2018.7,182.7,82.9,20
0.079906,426.8,88.3,1281.9,266.8,1889.2,151.3,540.9,1646.6,2021.8,182.5,82.9,15.4
0.081906,466.0,119.4,1317.9,222.8,1903.6,271.6,540.1,1649.5,2025.1,182.2,83.1,10.8
0.083906,502.9,145.3,1357.7,177.5,1948.6,411.1,539.3,1652.5,2028.5,182,83.3,7.1
0.085906,529.2,167.0,1389.4,137.0,2011.2,514.0,538.4,1655.5,2031.9,181.7,83.6,5.2
0.087906,541.3,187.2,1412.7,114.0,2057.2,557.6,537.5,1658.6,2035.5,181.5,83.9,4.6
0.089906,546.5,211.0,1431.7,99.4,2087.5,577.0,536.6,1661.8,2039.1,181.2,84.2,4.9
0.091906,551.4,242.1,1444.3,87.7,2111.3,593.0,535.7,1665,2042.8,181,84.4,5.7
0.093906,559.1,281.4,1450.9,78.7,2129.1,608.9,534.8,1668.4,2046.6,180.7,84.7,6.4
0.095906,569.5,326.4,1453.6,74.2,2133.2,610.4,533.9,1671.8,2050.5,180.5,84.8,6.9
0.097906,576.3,358.2,1453.5,75.7,2117.9,585.2,532.9,1675.2,2054.5,180.2,84.9,7.4
0.099906,578.6,373.8,1452.2,83.6,2090.2,537.2,531.9,1678.8,2058.5,180,85,8
0.101906,584.0,386.5,1452.2,98.7,2065.6,487.6,530.9,1682.4,2062.6,179.8,85,8.6
0.103906,600.9,413.6,1455.4,122.6,2052.0,452.4,530,1686.1,2066.8,179.5,85,9.3
0.105906,636.1,455.4,1462.7,160.8,2044.9,430.1,529,1689.8,2071,179.3,84.9,10.2
0.107906,682.1,485.8,1474.1,207.9,2041.6,426.4,527.9,1693.6,2075.3,179.1,84.9,11.2
0.109906,731.4,491.0,1492.6,255.0,2043.9,447.5,526.9,1697.5,2079.7,178.9,84.9,12.2
0.111906,771.8,471.0,1515.7,279.0,2056.2,487.3,525.9,1701.4,2084.1,178.7,84.9,13.3
0.113906,798.8,440.9,1535.1,278.1,2075.0,525.3,524.9,1705.3,2088.6,178.5,84.9,14.2
0.115906,817.2,408.1,1551.4,268.7,2094.5,555.7,523.8,1709.4,2093.1,178.3,84.9,14.7
0.117906,828.7,380.0,1565.4,264.7,2105.7,576.1,522.8,1713.4,2097.7,178.1,84.9,15
0.119906,837.5,359.2,1580.3,271.4,2105.0,591.7,521.7,1717.5,2102.3,177.9,84.8,15.2
0.121906,843.9,349.2,1597.4,291.4,2092.1,604.3,520.7,1721.7,2107,177.7,84.8,15.2
0.123906,848.7,344.3,1619.0,321.9,2072.5,615.2,519.7,1725.9,2111.8,177.5,84.7,15.3
0.125906,853.5,336.7,1650.9,357.3,2046.6,631.8,518.6,1730.1,2116.5,177.3,84.7,15.4
0.127906,857.8,327.6,1690.9,381.9,2012.2,662.4,517.6,1734.4,2121.3,177.2,84.8,15.5
0.129906,861.2,322.0,1744.3,382.3,1957.3,729.3,516.5,1738.7,2126.1,177,84.8,15.7
0.131906,862.7,319.7,1792.8,315.2,1905.8,870.8,515.5,1743,2131,176.9,85,15.7
0.133906,861.8,313.3,1809.7,239.8,1896.8,999.3,514.5,1747.4,2135.9,176.7,85.1,15.7
0.135906,858.7,298.3,1814.2,191.5,1915.9,1033.5,513.4,1751.8,2140.8,176.6,85.2,15.6
0.137906,854.2,281.7,1813.1,174.7,1945.3,958.5,512.4,1756.2,2145.7,176.4,85.3,15.3
0.139906,849.0,269.8,1808.8,174.0,1978.1,851.5,511.4,1760.7,2150.7,176.3,85.4,14.9
0.141906,844.2,267.0,1805.7,172.5,2010.9,799.7,510.4,1765.1,2155.7,176.2,85.6,14.5
0.143906,839.8,270.9,1806.0,165.2,2039.1,806.6,509.4,1769.6,2160.6,176.1,85.7,14.1
0.145906,835.5,276.3,1807.3,156.0,2061.9,829.8,508.4,1774.1,2165.6,176,85.8,13.8
0.147906,832.3,280.1,1808.5,150.4,2072.6,835.9,507.5,1778.6,2170.6,175.9,85.9,13.6
0.149906,828.4,286.6,1811.9,151.4,2070.1,831.6,506.5,1783.1,2175.6,175.8,85.9,13.4
0.151906,822.2,298.6,1820.5,160.6,2057.3,833.6,505.6,1787.7,2180.6,175.7,86,13.3
0.153906,813.6,316.4,1836.4,173.3,2041.4,858.8,504.7,1792.2,2185.6,175.6,86,13.1
0.155906,799.0,343.8,1861.2,181.4,2023.2,929.6,503.7,1796.7,2190.6,175.5,86,12.8
0.157906,776.2,375.0,1885.7,179.0,2004.3,1034.9,502.9,1801.2,2195.6,175.5,86,12.7
0.159906,740.2,401.8,1904.0,172.4,1988.8,1128.2,502,1805.7,2200.5,175.4,86,12.5
0.161906,686.8,407.0,1913.7,170.6,1982.0,1128.5,501.1,1810.3,2205.5,175.4,85.9,12.2
0.163906,623.2,374.9,1917.5,176.1,1982.2,1025.8,500.3,1814.8,2210.4,175.4,85.9,11.8
0.165906,560.9,311.4,1916.0,190.6,1990.1,856.1,499.5,1819.3,2215.3,175.3,85.7,11.2
0.167906,513.6,250.9,1906.6,210.2,2007.8,697.0,498.7,1823.7,2220.2,175.3,85.5,10.2
0.169906,476.2,203.5,1888.2,210.2,2046.3,603.7,497.9,1828.2,2225.1,175.4,85.3,9.1
0.171906,451.6,178.4,1876.8,172.8,2105.9,629.7,497.2,1832.6,2229.9,175.4,84.9,7.9
0.173906,438.5,171.9,1874.0,131.8,2192.1,744.9,496.5,1837.1,2234.7,175.4,84.5,6.9
0.175906,429.9,170.3,1873.6,100.6,2328.1,924.3,495.8,1841.5,2239.5,175.4,84,6
0.177906,420.8,161.1,1876.3,82.1,2519.3,1083.0,495.1,1845.8,2244.2,175.5,83.6,5.1
0.179906,409.4,138.2,1884.9,69.6,2791.4,91.3,494.5,1850.2,2248.8,175.5,83.3,4.2
0.181906,400.6,109.3,1896.8,63.0,2644.5,552.1,493.9,1854.5,2253.5,175.6,83.1,3.6
0.183906,398.9,86.8,1907.4,63.8,2513.4,556.7,493.3,1858.7,2258.1,175.6,83.1,3.4
0.185906,403.1,72.3,1917.7,71.8,2409.7,528.9,492.7,1863,2262.6,175.7,83.3,3.7
0.187906,409.4,65.2,1928.2,82.7,2374.6,522.2,492.2,1867.2,2267.1,175.8,83.6,4.6
0.189906,415.7,61.9,1939.5,92.3,2394.8,544.0,491.7,1871.3,2271.5,175.8,83.9,5.9
0.191906,421.1,60.6,1950.7,100.4,2452.1,553.7,491.3,1875.4,2275.8,175.9,84.2,7.4
0.193906,425.3,60.0,1963.0,109.5,2516.7,516.8,490.8,1879.5,2280.1,175.9,84.5,8.8
0.195906,427.9,59.4,1976.5,121.9,2561.5,425.7,490.4,1883.5,2284.4,176,84.8,10
0.197906,428.1,58.2,1986.8,137.7,2569.3,340.8,490.1,1887.5,2288.5,176,85,11.2
0.199906,426.6,57.0,1995.1,160.3,2560.4,287.3,489.7,1891.4,2292.6,176.1,85.1,12.4
0.201906,424.4,57.4,2006.1,187.1,2545.3,265.6,489.5,1895.2,2296.7,176.1,85.2,13.5
0.203906,422.1,58.8,2023.9,210.2,2525.9,265.4,489.2,1899,2300.6,176.1,85.2,14.4
0.205906,418.4,59.3,2047.9,234.0,2500.4,280.9,489,1902.8,2304.5,176.2,85.2,14.9
0.207906,413.9,58.7,2069.5,269.4,2469.2,305.3,488.8,1906.4,2308.3,176.2,85.1,15.1
0.209906,409.5,58.6,2090.8,325.7,2430.9,325.3,488.6,1910.1,2312,176.2,85.1,15
0.211906,405.7,59.4,2118.8,383.2,2399.0,334.0,488.5,1913.6,2315.7,176.2,85.2,14.7
0.213906,401.9,60.0,2157.7,406.1,2383.6,345.3,488.4,1917.1,2319.2,176.2,85.2,14.5
0.215906,397.6,60.1,2195.8,386.4,2385.6,359.9,488.4,1920.5,2322.7,176.2,85.3,14.2
0.217906,393.6,60.1,2208.8,377.9,2398.4,341.6,488.4,1923.8,2326.1,176.2,85.4,13.8
0.219906,389.9,60.3,2197.7,420.4,2412.5,281.4,488.4,1927.1,2329.4,176.2,85.6,13.2
0.221906,386.1,59.5,2163.4,506.3,2429.1,209.2,488.5,1930.3,2332.5,176.2,85.8,12.8
0.223906,381.7,55.4,2115.9,605.3,2445.0,149.5,488.6,1933.4,2335.6,176.2,85.9,12.8
0.225906,376.3,47.6,2070.5,670.2,2457.2,107.5,488.7,1936.4,2338.6,176.3,86.1,13.4
0.227906,371.8,39.5,2057.5,639.6,2463.7,88.5,488.9,1939.4,2341.5,176.3,86.2,14.6
0.229906,368.0,32.1,2064.9,561.1,2466.8,83.3,489.1,1942.2,2344.3,176.3,86.3,16.3
0.231906,365.2,25.9,2067.9,520.2,2466.6,86.8,489.3,1945,2347,176.3,86.4,18
0.233906,363.5,21.6,2059.1,518.9,2463.8,91.6,489.6,1947.7,2349.6,176.4,86.5,19.4
0.235906,362.4,18.8,2043.3,529.2,2460.3,93.1,490,1950.3,2352.1,176.4,86.5,20.2
0.237906,361.7,17.3,2032.0,542.4,2459.7,91.0,490.3,1952.8,2354.5,176.5,86.6,20.7
0.239906,361.3,16.4,2026.3,578.8,2462.2,87.4,490.7,1955.2,2356.8,176.5,86.6,20.8
0.241906,361.0,15.7,2013.7,684.9,2464.6,84.2,491.2,1957.6,2359,176.6,86.7,20.8
0.243906,360.9,15.1,1964.2,885.9,2463.7,79.8,491.6,1959.8,2361,176.7,86.7,20.7
0.245906,360.7,14.6,1853.4,1123.7,2460.5,68.6,492.1,1962,2363,176.8,86.7,20.4
0.247906,360.2,14.2,1742.5,1331.7,2459.1,54.2,492.7,1964,2364.8,176.9,86.8,19.7
0.249906,359.9,13.8,1646.7,1543.3,2460.1,42.1,493.3,1966,2366.6,177,86.8,18.9
0.251906,360.3,13.3,1590.6,1657.0,2462.7,36.4,493.9,1967.9,2368.2,177.2,86.7,18.1
0.253906,361.5,13.0,1595.4,1640.7,2466.4,36.8,494.5,1969.6,2369.7,177.3,86.7,17.7
0.255906,363.6,13.3,1667.7,1565.5,2471.4,42.3,495.2,1971.3,2371.1,177.5,86.7,17.8
0.257906,365.8,14.1,1780.2,1402.2,2476.9,49.2,496,1972.8,2372.4,177.6,86.6,18.7
0.259906,368.3,15.3,1854.2,1146.2,2482.7,54.6,496.7,1974.3,2373.5,177.8,86.5,20
0.261906,371.0,17.0,1874.1,984.2,2487.5,58.1,497.5,1975.7,2374.6,178,86.4,21.2
0.263906,373.4,18.9,1891.2,951.8,2491.0,61.6,498.3,1976.9,2375.5,178.2,86.3,22
0.265906,375.8,21.1,1938.8,1015.6,2493.3,65.9,499.2,1978.1,2376.3,178.4,86.2,22.2
0.267906,378.2,23.3,2034.3,1123.7,2493.3,70.5,500.1,1979.1,2377,178.6,86.1,21.9
0.269906,380.7,25.4,2185.3,1187.7,2490.6,75.7,501,1980.1,2377.5,178.8,86,21.3
0.271906,382.9,27.0,2315.8,1117.0,2486.9,81.6,501.9,1980.9,2378,179,85.9,20.5
0.273906,384.5,27.9,2346.2,981.3,2485.0,89.2,502.9,1981.7,2378.3,179.3,85.8,19.6
0.275906,385.9,28.9,2293.4,829.3,2486.1,99.5,503.9,1982.3,2378.6,179.5,85.7,18.6
0.277906,387.7,30.5,2230.5,685.8,2487.1,109.8,504.9,1982.8,2378.7,179.7,85.7,17.3
0.279906,390.3,32.4,2193.0,576.6,2481.8,123.0,506,1983.2,2378.6,180,85.6,15.9
0.281906,393.4,34.2,2183.0,540.3,2465.2,142.7,507.1,1983.5,2378.5,180.2,85.5,14.6
0.283906,396.9,35.7,2189.7,588.4,2435.7,161.0,508.2,1983.8,2378.3,180.5,85.4,13.5
0.285906,401.9,37.8,2190.9,723.9,2400.0,152.9,509.3,1983.9,2377.9,180.7,85.3,12.7
0.287906,409.1,41.4,2167.0,841.7,2381.5,129.4,510.5,1983.9,2377.4,181,85.3,12.4
0.289906,419.2,47.0,2141.9,876.4,2374.5,112.4,511.6,1983.7,2376.8,181.2,85.2,12.2
0.291906,431.6,53.4,2127.9,819.9,2373.1,103.6,512.8,1983.5,2376.1,181.4,85.1,12.1
0.293906,444.8,58.5,2111.0,698.6,2376.1,99.4,514,1983.2,2375.3,181.7,84.9,12.1
0.295906,459.1,61.0,2081.9,552.5,2383.5,95.6,515.3,1982.8,2374.3,181.9,84.7,12
0.297906,472.2,60.9,2053.0,441.5,2391.7,93.9,516.5,1982.2,2373.3,182.2,84.5,11.9
0.299906,485.0,58.9,2030.0,361.7,2400.4,99.1,517.8,1981.6,2372.1,182.4,84.2,11.8
0.301906,497.1,56.2,2013.4,301.1,2410.4,112.4,519.1,1980.9,2370.9,182.6,83.9,11.8
0.303906,508.9,53.1,1999.7,246.4,2422.5,130.8,520.4,1980,2369.5,182.8,83.7,11.7
0.305906,521.6,48.8,1986.4,191.3,2438.4,156.2,521.7,1979.1,2368,183,83.6,11.6
0.307906,533.3,43.7,1977.1,148.8,2453.8,188.6,523.1,1978,2366.4,183.2,83.6,11.5
0.309906,543.7,38.3,1973.1,121.9,2458.4,232.0,524.4,1976.9,2364.7,183.4,83.8,11.4
0.311906,551.9,34.2,1973.8,115.0,2436.2,276.6,525.8,1975.6,2362.9,183.6,84,11.3
0.313906,558.3,31.9,1976.0,125.7,2395.0,319.6,527.1,1974.3,2361,183.8,84.3,11
0.315906,563.9,30.4,1977.6,148.2,2339.6,376.2,528.5,1972.8,2359,183.9,84.7,10.7
0.317906,568.4,29.8,1980.8,173.0,2269.0,445.1,529.9,1971.3,2356.9,184.1,85.1,10.1
0.319906,571.9,29.6,1996.2,189.3,2169.2,531.8,531.2,1969.6,2354.7,184.2,85.5,9.5
0.321906,574.2,29.3,2015.9,159.9,2072.8,645.5,532.6,1967.9,2352.4,184.3,85.7,8.9
0.323906,575.7,28.8,2018.2,123.8,2024.3,738.7,534,1966.1,2350,184.4,85.9,8.4
0.325906,576.8,28.6,2002.3,792.5,2015.3,102.4,535.4,1964.1,2347.6,184.5,86,8.2
0.327906,577.7,29.6,1989.5,799.2,2012.6,92.8,536.8,1962.1,2345,184.6,85.9,8.1
0.329906,578.8,33.1,1971.6,777.8,2010.9,88.0,538.2,1960,2342.3,184.7,85.8,8.1
0.331906,581.0,40.7,1943.2,755.8,2010.4,84.5,539.6,1957.8,2339.6,184.8,85.5,8.2
0.333906,586.3,53.7,1916.7,741.0,2009.6,83.4,541,1955.5,2336.8,184.8,85.2,8.6
0.335906,595.9,72.5,1903.6,713.0,2007.1,88.4,542.3,1953.2,2333.8,184.9,85,9.1
0.337906,606.8,89.6,1903.3,655.4,2002.2,100.0,543.7,1950.7,2330.9,184.9,84.8,9.9
0.339906,616.1,99.5,1911.4,572.0,1993.0,119.1,545.1,1948.2,2327.8,185,84.7,10.9
0.341906,622.3,101.0,1933.2,498.7,1974.9,143.3,546.4,1945.5,2324.6,185,84.8,11.9
0.343906,626.0,99.2,1945.8,150.7,1969.3,477.9,547.8,1942.8,2321.4,185,84.9,12.7
0.345906,628.5,97.6,1921.6,129.5,1999.0,521.9,549.1,1940.1,2318.1,185,85.1,13.2
0.347906,631.3,97.7,1908.9,109.8,2012.5,587.2,550.4,1937.2,2314.8,185,85.4,13.5
0.349906,637.1,100.7,1899.4,94.4,2022.5,659.6,551.7,1934.3,2311.4,185,85.6,13.6
0.351906,647.8,107.8,1890.2,81.2,2043.0,729.6,553,1931.3,2307.9,185,85.8,13.6
0.353906,663.1,117.4,1880.6,68.6,2084.8,779.7,554.3,1928.2,2304.3,185,85.9,13.7
0.355906,684.2,126.9,1870.9,55.5,2150.7,782.5,555.5,1925,2300.7,185,85.9,13.9
0.357906,707.0,130.6,1863.5,44.9,2214.1,738.0,556.8,1921.8,2297.1,184.9,86,14.3
0.359906,728.4,128.0,1859.1,37.3,2266.0,691.4,558,1918.6,2293.4,184.9,85.9,14.7
0.361906,742.8,123.8,1857.6,34.2,2303.2,686.5,559.2,1915.2,2289.6,184.9,85.8,15
0.363906,750.2,121.9,1857.9,34.7,2325.7,733.0,560.3,1911.8,2285.8,184.8,85.7,15.3
0.365906,753.8,121.3,1858.9,37.9,2325.7,816.9,561.5,1908.4,2282,184.8,85.6,15.4
0.367906,756.3,120.6,1859.9,42.5,2293.4,856.6,562.6,1904.9,2278.1,184.7,85.4,15.4
0.369906,760.2,119.1,1861.2,49.2,2246.0,803.7,563.7,1901.3,2274.1,184.6,85.2,15.2
0.371906,764.9,117.1,1863.5,58.2,2207.1,712.5,564.7,1897.7,2270.2,184.6,85,15.1
0.373906,767.9,116.5,1867.2,68.0,2187.0,654.7,565.8,1894,2266.2,184.5,84.7,15
0.375906,768.0,119.3,1872.5,76.6,2188.1,657.6,566.8,1890.3,2262.1,184.4,84.4,15.1
0.377906,764.5,126.1,1877.6,81.1,2214.0,727.1,567.7,1886.5,2258.1,184.3,84.1,15.3
0.379906,757.7,136.5,1881.4,82.8,2268.4,854.8,568.7,1882.7,2254,184.2,83.7,15.6
0.381906,748.8,147.1,1882.7,83.8,2339.5,1021.5,569.6,1878.9,2249.9,184.1,83.4,15.9
0.383906,739.0,155.5,1881.5,84.9,2387.8,1233.3,570.4,1875,2245.8,184,83.1,16.1
0.385906,727.8,163.0,1878.7,85.6,2368.8,1518.3,571.3,1871.1,2241.6,183.9,82.9,16
0.387906,715.6,171.7,1876.3,86.1,2244.7,1881.7,572,1867.2,2237.5,183.8,82.6,15.9
0.389906,698.4,185.1,1875.6,87.6,1888.5,2285.7,572.8,1863.2,2233.3,183.7,82.3,15.7
0.391906,674.1,198.3,1393.1,1852.8,1877.0,91.9,573.5,1859.2,2229.2,183.5,82,15.3
0.393906,644.7,202.1,1309.0,1274.4,1879.3,99.2,574.2,1855.2,2225,183.4,81.7,14.9
0.395906,611.1,191.4,1303.1,911.4,1881.2,109.2,574.8,1851.2,2220.8,183.3,81.4,14.4
0.397906,582.1,170.0,1313.9,692.4,1882.2,122.4,575.4,1847.1,2216.6,183.2,81.2,13.6
0.399906,557.6,142.5,1329.1,545.5,1883.9,144.3,575.9,1843,2212.5,183.1,81,12.7
0.401906,539.2,115.6,1347.1,451.3,1889.4,181.1,576.4,1838.9,2208.3,182.9,80.9,11.9
0.403906,527.2,94.7,1370.1,392.0,1902.6,238.6,576.9,1834.8,2204.2,182.8,80.9,11.3
0.405906,519.3,78.6,1402.0,344.5,1929.0,325.2,577.3,1830.7,2200,182.7,81,11.2
0.407906,514.4,67.4,1433.5,299.8,1966.1,411.6,577.6,1826.6,2195.9,182.6,81.2,11.4
0.409906,511.0,57.9,1457.8,255.5,2000.3,472.0,577.9,1822.5,2191.8,182.5,81.4,11.8
0.411906,508.6,50.0,1472.7,223.7,2008.6,516.3,578.2,1818.3,2187.8,182.4,81.7,12.4
0.413906,507.0,44.2,1483.8,207.2,1994.1,579.4,578.4,1814.2,2183.7,182.3,82,13.1
0.415906,506.3,40.5,1497.4,199.3,1973.5,683.3,578.6,1810.1,2179.7,182.3,82.3,13.8
0.417906,506.6,39.0,1512.8,195.0,1963.2,826.4,578.7,1806,2175.7,182.2,82.5,14.8
0.419906,507.8,38.8,1529.7,192.1,1954.9,1040.7,578.7,1801.9,2171.8,182.1,82.7,15.9
0.421906,510.1,39.5,1546.8,190.6,1947.1,1310.9,578.7,1797.8,2167.9,182,82.9,17
0.423906,513.0,40.6,1564.5,196.6,1981.4,1522.8,578.7,1793.7,2164,182,83.1,18
0.425906,516.1,41.6,1591.2,219.5,2046.1,1518.7,578.6,1789.7,2160.2,181.9,83.2,18.5
0.427906,518.5,42.3,1632.8,249.4,2005.0,1427.0,578.4,1785.7,2156.4,181.8,83.3,18.8
0.429906,520.1,42.5,1693.0,251.7,1878.8,1492.0,578.2,1781.6,2152.7,181.8,83.4,18.8
0.431906,521.1,41.8,1736.5,1711.1,1745.0,204.1,577.9,1777.7,2149,181.7,83.5,18.8
0.433906,522.0,40.6,1638.0,2036.1,1776.0,152.3,577.6,1773.7,2145.4,181.7,83.6,18.9
0.435906,523.4,39.3,1614.7,2773.1,1796.9,111.8,577.2,1769.8,2141.8,181.6,83.6,19.3
0.437906,525.2,38.3,1809.3,86.5,2568.2,146.0,576.8,1765.9,2138.3,181.5,83.6,20
0.439906,527.3,37.8,1815.6,70.7,2564.9,133.2,576.3,1762,2134.9,181.5,83.7,20.7
0.441906,529.2,38.1,1816.5,61.6,2561.2,125.3,575.8,1758.2,2131.5,181.4,83.7,21.4
0.443906,530.9,38.7,1815.0,55.2,2556.2,116.5,575.2,1754.5,2128.2,181.3,83.8,21.9
0.445906,532.4,39.1,1814.0,48.6,2550.5,105.5,574.5,1750.7,2124.9,181.3,83.9,21.9
0.447906,533.3,38.8,1814.5,42.9,2546.8,101.2,573.8,1747.1,2121.8,181.2,84,21.4
0.449906,533.2,37.5,1815.6,38.9,2545.0,110.9,573,1743.4,2118.7,181.1,84.1,20.6
0.451906,531.8,35.9,1816.5,36.5,2543.1,134.6,572.2,1739.8,2115.7,181,84.2,19.8
0.453906,529.6,34.1,1816.9,34.9,2540.1,168.2,571.3,1736.3,2112.7,180.9,84.3,19.2
0.455906,526.9,32.3,1817.4,33.4,2538.7,214.9,570.4,1732.8,2109.9,180.8,84.3,18.8
0.457906,524.9,31.1,1818.1,32.4,2543.0,273.4,569.4,1729.4,2107.1,180.7,84.4,18.7
0.459906,523.6,30.9,1818.7,31.8,2545.0,379.4,568.3,1726.1,2104.4,180.5,84.4,18.6
0.461906,522.9,31.4,1819.2,32.3,2478.0,466.6,567.2,1722.8,2101.8,180.4,84.4,18.7
0.463906,522.3,31.9,1819.4,33.5,2433.1,439.6,566.1,1719.6,2099.3,180.3,84.3,18.7
0.465906,521.6,32.4,1819.1,34.9,2410.9,394.6,564.8,1716.4,2096.9,180.1,84.3,18.7
0.467906,520.8,32.6,1818.5,35.7,2399.8,354.7,563.6,1713.3,2094.6,180,84.2,18.7
0.469906,520.2,32.6,1818.2,36.8,2393.1,324.2,562.2,1710.3,2092.4,179.8,84.1,18.6
0.471906,520.0,32.3,1819.1,38.8,2389.4,307.5,560.9,1707.4,2090.3,179.6,84,18.6
0.473906,519.9,31.9,1821.3,42.6,2385.0,303.5,559.4,1704.5,2088.3,179.4,83.9,18.6
0.475906,519.3,31.8,1826.0,49.8,2374.6,307.8,557.9,1701.7,2086.3,179.2,83.9,18.5
0.477906,517.8,32.1,1833.7,61.5,2359.6,318.4,556.4,1699,2084.5,179,83.8,18.5
0.479906,515.7,32.9,1846.9,79.9,2344.7,339.9,554.8,1696.4,2082.8,178.8,83.8,18.4
0.481906,513.6,34.1,1867.3,101.9,2343.7,374.3,553.1,1693.8,2081.2,178.6,83.8,18.4
0.483906,512.4,35.7,1893.2,117.9,2364.9,404.6,551.4,1691.4,2079.7,178.4,83.8,18.2
0.485906,512.0,37.7,1920.8,123.6,2393.0,424.9,549.7,1689,2078.3,178.1,83.8,18
0.487906,511.7,39.9,1941.3,124.3,2405.5,477.1,547.9,1686.7,2077.1,177.9,83.8,17.7
0.489906,511.0,42.4,1954.8,124.5,2380.2,573.4,546,1684.6,2075.9,177.6,83.9,17.2
0.491906,510.2,45.4,1959.1,121.2,2314.6,571.7,544.1,1682.5,2074.9,177.4,83.9,16.8
0.493906,509.9,48.2,1955.9,110.4,2287.2,489.6,542.2,1680.5,2073.9,177.2,83.9,16.5
0.495906,509.8,50.3,1951.0,93.2,2292.0,421.4,540.2,1678.5,2073.1,176.9,83.9,16.3
0.497906,509.2,50.8,1949.6,79.6,2307.8,390.7,538.1,1676.7,2072.4,176.7,83.9,16.2
0.499906,508.0,50.1,1951.7,72.2,2323.0,388.9,536,1675,2071.8,176.4,83.9,16.1
0.501906,506.3,48.9,1955.4,69.9,2330.4,412.1,533.9,1673.4,2071.4,176.2,83.8,16.1
0.503906,504.0,47.9,1956.9,69.7,2327.4,451.2,531.7,1671.9,2071,175.9,83.8,16.2
0.505906,500.9,47.3,1954.8,70.5,2314.8,507.9,529.5,1670.5,2070.8,175.7,83.8,16.4
0.507906,497.8,47.6,1950.7,71.7,2299.3,574.4,527.3,1669.2,2070.7,175.4,83.8,16.7
0.509906,494.7,49.0,1946.6,73.9,2284.8,631.5,525,1668,2070.7,175.2,83.8,17
0.511906,492.0,51.3,1944.2,77.4,2273.4,649.1,522.6,1666.9,2070.8,175,83.8,17.4
0.513906,488.9,53.0,1943.9,80.4,2269.5,658.8,520.2,1665.9,2071.1,174.8,83.7,17.6
0.515906,484.4,52.8,1945.2,80.8,2287.1,705.8,517.8,1665,2071.5,174.6,83.7,17.8
0.517906,480.2,51.3,1946.2,78.2,2350.5,779.8,515.4,1664.2,2072,174.4,83.6,17.8
